'y-axis saved as y
'x,NN_StartingMaterials_Ba(NO3)2.raw
5,37
5.0185858,31
5.0371716,39
5.0557574,34
5.0743432,28
5.092929,42
5.1115148,30
5.1301006,31
5.1486864,33
5.1672722,39
5.185858,34
5.2044438,26
5.2230296,27
5.2416154,48
5.2602012,33
5.278787,32
5.2973728,44
5.3159586,24
5.3345444,22
5.3531302,43
5.371716,35
5.3903018,36
5.4088876,28
5.4274734,37
5.4460592,35
5.464645,43
5.4832308,26
5.5018166,30
5.5204024,34
5.5389882,39
5.557574,37
5.5761598,28
5.5947456,32
5.6133314,33
5.6319172,33
5.650503,37
5.6690888,41
5.6876746,33
5.7062604,35
5.7248462,23
5.743432,41
5.7620178,26
5.7806036,45
5.7991894,31
5.8177752,29
5.836361,31
5.8549468,42
5.8735326,23
5.8921184,24
5.9107042,44
5.92929,21
5.9478758,27
5.9664616,26
5.9850474,31
6.0036332,34
6.022219,36
6.0408048,32
6.0593906,31
6.0779764,26
6.0965622,28
6.115148,34
6.1337338,33
6.1523196,21
6.1709054,37
6.1894912,23
6.208077,30
6.2266628,28
6.2452486,37
6.2638344,25
6.2824202,24
6.301006,32
6.3195918,29
6.3381776,34
6.3567634,32
6.3753492,20
6.393935,23
6.4125208,34
6.4311066,30
6.4496924,28
6.4682782,35
6.486864,33
6.5054498,29
6.5240356,23
6.5426214,19
6.5612072,29
6.579793,40
6.5983788,26
6.6169646,33
6.6355504,30
6.6541362,32
6.672722,26
6.6913078,30
6.7098936,31
6.7284794,24
6.7470652,30
6.765651,39
6.7842368,27
6.8028226,31
6.8214084,28
6.8399942,30
6.85858,23
6.8771658,27
6.8957516,24
6.9143374,33
6.9329232,30
6.951509,30
6.9700948,24
6.9886806,35
7.0072664,32
7.0258522,26
7.044438,24
7.0630238,22
7.0816096,28
7.1001954,29
7.1187812,31
7.137367,33
7.1559528,21
7.1745386,23
7.1931244,21
7.2117102,25
7.230296,24
7.2488818,24
7.2674676,24
7.2860534,29
7.3046392,23
7.323225,26
7.3418108,19
7.3603966,24
7.3789824,25
7.3975682,37
7.416154,21
7.4347398,29
7.4533256,25
7.4719114,29
7.4904972,25
7.509083,27
7.5276688,26
7.5462546,12
7.5648404,27
7.5834262,25
7.602012,19
7.6205978,24
7.6391836,25
7.6577694,30
7.6763552,37
7.694941,24
7.7135268,31
7.7321126,27
7.7506984,26
7.7692842,21
7.78787,28
7.8064558,25
7.8250416,33
7.8436274,27
7.8622132,16
7.880799,14
7.8993848,20
7.9179706,17
7.9365564,20
7.9551422,26
7.973728,22
7.9923138,22
8.0108996,19
8.0294854,23
8.0480712,28
8.066657,24
8.0852428,28
8.1038286,27
8.1224144,20
8.1410002,31
8.159586,29
8.1781718,27
8.1967576,20
8.2153434,18
8.2339292,26
8.252515,29
8.2711008,31
8.2896866,19
8.3082724,27
8.3268582,25
8.345444,30
8.3640298,20
8.3826156,17
8.4012014,27
8.4197872,25
8.438373,32
8.4569588,30
8.4755446,26
8.4941304,21
8.5127162,23
8.531302,30
8.5498878,23
8.5684736,29
8.5870594,27
8.6056452,33
8.624231,19
8.6428168,16
8.6614026,26
8.6799884,24
8.6985742,27
8.71716,19
8.7357458,19
8.7543316,21
8.7729174,18
8.7915032,29
8.810089,26
8.8286748,22
8.8472606,26
8.8658464,22
8.8844322,18
8.903018,11
8.9216038,18
8.9401896,22
8.9587754,12
8.9773612,22
8.995947,23
9.0145328,20
9.0331186,25
9.0517044,20
9.0702902,21
9.088876,19
9.1074618,22
9.1260476,22
9.1446334,15
9.1632192,19
9.181805,20
9.2003908,25
9.2189766,33
9.2375624,19
9.2561482,23
9.274734,20
9.2933198,14
9.3119056,19
9.3304914,23
9.3490772,24
9.367663,22
9.3862488,25
9.4048346,28
9.4234204,19
9.4420062,33
9.460592,23
9.4791778,18
9.4977636,19
9.5163494,16
9.5349352,24
9.553521,24
9.5721068,26
9.5906926,22
9.6092784,15
9.6278642,16
9.64645,16
9.6650358,24
9.6836216,19
9.7022074,22
9.7207932,22
9.739379,21
9.7579648,28
9.7765506,27
9.7951364,16
9.8137222,25
9.832308,16
9.8508938,15
9.8694796,23
9.8880654,23
9.9066512,23
9.925237,25
9.9438228,19
9.9624086,22
9.9809944,25
9.9995802,26
10.018166,22
10.0367518,24
10.0553376,17
10.0739234,29
10.0925092,14
10.111095,21
10.1296808,17
10.1482666,10
10.1668524,27
10.1854382,24
10.204024,19
10.2226098,17
10.2411956,24
10.2597814,18
10.2783672,16
10.296953,16
10.3155388,13
10.3341246,10
10.3527104,29
10.3712962,23
10.389882,22
10.4084678,20
10.4270536,12
10.4456394,28
10.4642252,19
10.482811,17
10.5013968,20
10.5199826,18
10.5385684,21
10.5571542,15
10.57574,17
10.5943258,25
10.6129116,23
10.6314974,18
10.6500832,26
10.668669,25
10.6872548,22
10.7058406,19
10.7244264,20
10.7430122,17
10.761598,14
10.7801838,14
10.7987696,14
10.8173554,18
10.8359412,22
10.854527,16
10.8731128,21
10.8916986,16
10.9102844,18
10.9288702,25
10.947456,18
10.9660418,17
10.9846276,17
11.0032134,20
11.0217992,23
11.040385,28
11.0589708,20
11.0775566,26
11.0961424,17
11.1147282,21
11.133314,24
11.1518998,17
11.1704856,19
11.1890714,28
11.2076572,18
11.226243,22
11.2448288,16
11.2634146,17
11.2820004,16
11.3005862,19
11.319172,18
11.3377578,19
11.3563436,23
11.3749294,27
11.3935152,14
11.412101,31
11.4306868,19
11.4492726,21
11.4678584,17
11.4864442,15
11.50503,32
11.5236158,14
11.5422016,20
11.5607874,21
11.5793732,22
11.597959,20
11.6165448,16
11.6351306,16
11.6537164,19
11.6723022,23
11.690888,22
11.7094738,18
11.7280596,22
11.7466454,18
11.7652312,16
11.783817,23
11.8024028,15
11.8209886,18
11.8395744,18
11.8581602,12
11.876746,13
11.8953318,13
11.9139176,20
11.9325034,16
11.9510892,16
11.969675,19
11.9882608,18
12.0068466,25
12.0254324,18
12.0440182,16
12.062604,28
12.0811898,11
12.0997756,19
12.1183614,27
12.1369472,23
12.155533,15
12.1741188,23
12.1927046,18
12.2112904,26
12.2298762,24
12.248462,12
12.2670478,23
12.2856336,23
12.3042194,14
12.3228052,15
12.341391,24
12.3599768,17
12.3785626,23
12.3971484,25
12.4157342,15
12.43432,18
12.4529058,21
12.4714916,15
12.4900774,15
12.5086632,11
12.527249,16
12.5458348,17
12.5644206,19
12.5830064,21
12.6015922,24
12.620178,20
12.6387638,27
12.6573496,12
12.6759354,19
12.6945212,11
12.713107,20
12.7316928,22
12.7502786,12
12.7688644,20
12.7874502,22
12.806036,20
12.8246218,18
12.8432076,19
12.8617934,10
12.8803792,22
12.898965,16
12.9175508,13
12.9361366,20
12.9547224,18
12.9733082,20
12.991894,14
13.0104798,18
13.0290656,15
13.0476514,17
13.0662372,19
13.084823,14
13.1034088,14
13.1219946,20
13.1405804,14
13.1591662,16
13.177752,23
13.1963378,18
13.2149236,18
13.2335094,16
13.2520952,14
13.270681,23
13.2892668,8
13.3078526,25
13.3264384,17
13.3450242,13
13.36361,15
13.3821958,19
13.4007816,22
13.4193674,13
13.4379532,18
13.456539,18
13.4751248,14
13.4937106,11
13.5122964,19
13.5308822,16
13.549468,11
13.5680538,14
13.5866396,20
13.6052254,20
13.6238112,14
13.642397,16
13.6609828,16
13.6795686,16
13.6981544,8
13.7167402,11
13.735326,11
13.7539118,15
13.7724976,16
13.7910834,19
13.8096692,9
13.828255,14
13.8468408,22
13.8654266,14
13.8840124,20
13.9025982,13
13.921184,8
13.9397698,21
13.9583556,10
13.9769414,17
13.9955272,19
14.014113,19
14.0326988,11
14.0512846,14
14.0698704,27
14.0884562,20
14.107042,11
14.1256278,12
14.1442136,21
14.1627994,13
14.1813852,12
14.199971,18
14.2185568,17
14.2371426,15
14.2557284,17
14.2743142,21
14.2929,15
14.3114858,20
14.3300716,20
14.3486574,13
14.3672432,16
14.385829,14
14.4044148,21
14.4230006,15
14.4415864,19
14.4601722,15
14.478758,14
14.4973438,22
14.5159296,20
14.5345154,16
14.5531012,13
14.571687,19
14.5902728,16
14.6088586,11
14.6274444,14
14.6460302,17
14.664616,12
14.6832018,19
14.7017876,15
14.7203734,16
14.7389592,22
14.757545,15
14.7761308,10
14.7947166,15
14.8133024,19
14.8318882,16
14.850474,17
14.8690598,21
14.8876456,17
14.9062314,13
14.9248172,15
14.943403,19
14.9619888,15
14.9805746,15
14.9991604,23
15.0177462,16
15.036332,12
15.0549178,18
15.0735036,23
15.0920894,14
15.1106752,18
15.129261,16
15.1478468,22
15.1664326,25
15.1850184,13
15.2036042,17
15.22219,18
15.2407758,13
15.2593616,14
15.2779474,14
15.2965332,15
15.315119,14
15.3337048,13
15.3522906,18
15.3708764,18
15.3894622,20
15.408048,16
15.4266338,12
15.4452196,20
15.4638054,21
15.4823912,13
15.500977,20
15.5195628,15
15.5381486,19
15.5567344,11
15.5753202,16
15.593906,23
15.6124918,15
15.6310776,13
15.6496634,19
15.6682492,16
15.686835,21
15.7054208,18
15.7240066,17
15.7425924,12
15.7611782,16
15.779764,19
15.7983498,23
15.8169356,22
15.8355214,19
15.8541072,12
15.872693,16
15.8912788,22
15.9098646,12
15.9284504,19
15.9470362,13
15.965622,21
15.9842078,19
16.0027936,15
16.0213794,27
16.0399652,18
16.058551,16
16.0771368,19
16.0957226,15
16.1143084,14
16.1328942,19
16.15148,15
16.1700658,25
16.1886516,17
16.2072374,16
16.2258232,21
16.244409,19
16.2629948,15
16.2815806,16
16.3001664,12
16.3187522,16
16.337338,15
16.3559238,18
16.3745096,17
16.3930954,22
16.4116812,17
16.430267,20
16.4488528,17
16.4674386,20
16.4860244,15
16.5046102,16
16.523196,12
16.5417818,13
16.5603676,16
16.5789534,12
16.5975392,14
16.616125,15
16.6347108,18
16.6532966,21
16.6718824,21
16.6904682,17
16.709054,13
16.7276398,10
16.7462256,20
16.7648114,13
16.7833972,19
16.801983,13
16.8205688,10
16.8391546,19
16.8577404,12
16.8763262,16
16.894912,15
16.9134978,17
16.9320836,19
16.9506694,18
16.9692552,12
16.987841,21
17.0064268,21
17.0250126,15
17.0435984,19
17.0621842,18
17.08077,15
17.0993558,19
17.1179416,12
17.1365274,19
17.1551132,15
17.173699,22
17.1922848,22
17.2108706,19
17.2294564,14
17.2480422,15
17.266628,19
17.2852138,11
17.3037996,12
17.3223854,8
17.3409712,19
17.359557,15
17.3781428,16
17.3967286,26
17.4153144,24
17.4339002,19
17.452486,17
17.4710718,17
17.4896576,19
17.5082434,23
17.5268292,14
17.545415,11
17.5640008,11
17.5825866,18
17.6011724,14
17.6197582,19
17.638344,18
17.6569298,13
17.6755156,19
17.6941014,10
17.7126872,13
17.731273,13
17.7498588,11
17.7684446,20
17.7870304,16
17.8056162,9
17.824202,11
17.8427878,13
17.8613736,11
17.8799594,11
17.8985452,11
17.917131,14
17.9357168,14
17.9543026,10
17.9728884,16
17.9914742,21
18.01006,20
18.0286458,16
18.0472316,13
18.0658174,18
18.0844032,14
18.102989,17
18.1215748,14
18.1401606,22
18.1587464,9
18.1773322,17
18.195918,15
18.2145038,16
18.2330896,21
18.2516754,12
18.2702612,18
18.288847,14
18.3074328,11
18.3260186,14
18.3446044,19
18.3631902,15
18.381776,19
18.4003618,15
18.4189476,15
18.4375334,17
18.4561192,19
18.474705,25
18.4932908,16
18.5118766,12
18.5304624,16
18.5490482,20
18.567634,15
18.5862198,16
18.6048056,23
18.6233914,21
18.6419772,28
18.660563,18
18.6791488,18
18.6977346,28
18.7163204,15
18.7349062,23
18.753492,22
18.7720778,27
18.7906636,23
18.8092494,17
18.8278352,20
18.846421,22
18.8650068,48
18.8835926,34
18.9021784,45
18.9207642,94
18.93935,97
18.9579358,126
18.9765216,281
18.9951074,381
19.0136932,543
19.032279,513
19.0508648,470
19.0694506,478
19.0880364,404
19.1066222,330
19.125208,216
19.1437938,181
19.1623796,146
19.1809654,92
19.1995512,124
19.218137,72
19.2367228,95
19.2553086,80
19.2738944,72
19.2924802,33
19.311066,26
19.3296518,30
19.3482376,25
19.3668234,20
19.3854092,22
19.403995,22
19.4225808,16
19.4411666,25
19.4597524,25
19.4783382,18
19.496924,15
19.5155098,17
19.5340956,15
19.5526814,18
19.5712672,17
19.589853,11
19.6084388,15
19.6270246,17
19.6456104,24
19.6641962,22
19.682782,12
19.7013678,13
19.7199536,16
19.7385394,17
19.7571252,18
19.775711,14
19.7942968,12
19.8128826,10
19.8314684,25
19.8500542,26
19.86864,20
19.8872258,22
19.9058116,19
19.9243974,17
19.9429832,15
19.961569,17
19.9801548,17
19.9987406,11
20.0173264,18
20.0359122,17
20.054498,21
20.0730838,22
20.0916696,15
20.1102554,16
20.1288412,20
20.147427,18
20.1660128,23
20.1845986,9
20.2031844,18
20.2217702,21
20.240356,12
20.2589418,11
20.2775276,15
20.2961134,18
20.3146992,11
20.333285,18
20.3518708,16
20.3704566,11
20.3890424,17
20.4076282,21
20.426214,16
20.4447998,20
20.4633856,19
20.4819714,25
20.5005572,24
20.519143,19
20.5377288,16
20.5563146,25
20.5749004,17
20.5934862,20
20.612072,13
20.6306578,18
20.6492436,20
20.6678294,13
20.6864152,14
20.705001,16
20.7235868,15
20.7421726,17
20.7607584,19
20.7793442,14
20.79793,19
20.8165158,17
20.8351016,11
20.8536874,22
20.8722732,16
20.890859,24
20.9094448,15
20.9280306,17
20.9466164,19
20.9652022,24
20.983788,15
21.0023738,20
21.0209596,8
21.0395454,14
21.0581312,16
21.076717,16
21.0953028,11
21.1138886,16
21.1324744,16
21.1510602,19
21.169646,15
21.1882318,20
21.2068176,16
21.2254034,14
21.2439892,12
21.262575,16
21.2811608,19
21.2997466,17
21.3183324,16
21.3369182,26
21.355504,23
21.3740898,18
21.3926756,21
21.4112614,20
21.4298472,13
21.448433,21
21.4670188,19
21.4856046,24
21.5041904,20
21.5227762,15
21.541362,19
21.5599478,15
21.5785336,24
21.5971194,21
21.6157052,13
21.634291,13
21.6528768,12
21.6714626,12
21.6900484,15
21.7086342,22
21.72722,19
21.7458058,19
21.7643916,17
21.7829774,14
21.8015632,16
21.820149,19
21.8387348,26
21.8573206,27
21.8759064,25
21.8944922,40
21.913078,57
21.9316638,74
21.9502496,96
21.9688354,89
21.9874212,113
22.006007,133
22.0245928,102
22.0431786,61
22.0617644,56
22.0803502,44
22.098936,27
22.1175218,30
22.1361076,25
22.1546934,23
22.1732792,20
22.191865,20
22.2104508,27
22.2290366,13
22.2476224,21
22.2662082,13
22.284794,17
22.3033798,19
22.3219656,13
22.3405514,17
22.3591372,13
22.377723,16
22.3963088,21
22.4148946,13
22.4334804,14
22.4520662,13
22.470652,9
22.4892378,15
22.5078236,15
22.5264094,18
22.5449952,12
22.563581,15
22.5821668,14
22.6007526,17
22.6193384,8
22.6379242,16
22.65651,13
22.6750958,17
22.6936816,17
22.7122674,17
22.7308532,17
22.749439,14
22.7680248,13
22.7866106,13
22.8051964,13
22.8237822,19
22.842368,9
22.8609538,13
22.8795396,16
22.8981254,14
22.9167112,12
22.935297,11
22.9538828,22
22.9724686,22
22.9910544,19
23.0096402,17
23.028226,17
23.0468118,12
23.0653976,20
23.0839834,21
23.1025692,10
23.121155,16
23.1397408,21
23.1583266,8
23.1769124,22
23.1954982,26
23.214084,12
23.2326698,14
23.2512556,9
23.2698414,15
23.2884272,16
23.307013,12
23.3255988,14
23.3441846,11
23.3627704,16
23.3813562,17
23.399942,18
23.4185278,13
23.4371136,12
23.4556994,17
23.4742852,15
23.492871,13
23.5114568,14
23.5300426,10
23.5486284,19
23.5672142,11
23.5858,12
23.6043858,14
23.6229716,15
23.6415574,13
23.6601432,19
23.678729,11
23.6973148,13
23.7159006,22
23.7344864,9
23.7530722,15
23.771658,9
23.7902438,21
23.8088296,18
23.8274154,24
23.8460012,13
23.864587,18
23.8831728,20
23.9017586,16
23.9203444,13
23.9389302,17
23.957516,18
23.9761018,16
23.9946876,18
24.0132734,20
24.0318592,20
24.050445,11
24.0690308,15
24.0876166,23
24.1062024,12
24.1247882,14
24.143374,14
24.1619598,19
24.1805456,6
24.1991314,16
24.2177172,10
24.236303,20
24.2548888,8
24.2734746,14
24.2920604,20
24.3106462,18
24.329232,16
24.3478178,25
24.3664036,13
24.3849894,22
24.4035752,19
24.422161,13
24.4407468,18
24.4593326,21
24.4779184,15
24.4965042,14
24.51509,26
24.5336758,28
24.5522616,35
24.5708474,28
24.5894332,45
24.608019,30
24.6266048,39
24.6451906,27
24.6637764,33
24.6823622,34
24.700948,34
24.7195338,25
24.7381196,32
24.7567054,22
24.7752912,33
24.793877,40
24.8124628,27
24.8310486,23
24.8496344,15
24.8682202,17
24.886806,17
24.9053918,16
24.9239776,12
24.9425634,21
24.9611492,20
24.979735,11
24.9983208,20
25.0169066,16
25.0354924,12
25.0540782,19
25.072664,16
25.0912498,19
25.1098356,11
25.1284214,11
25.1470072,16
25.165593,10
25.1841788,16
25.2027646,16
25.2213504,12
25.2399362,17
25.258522,17
25.2771078,18
25.2956936,10
25.3142794,11
25.3328652,18
25.351451,12
25.3700368,10
25.3886226,13
25.4072084,16
25.4257942,12
25.44438,12
25.4629658,12
25.4815516,16
25.5001374,18
25.5187232,10
25.537309,18
25.5558948,18
25.5744806,10
25.5930664,12
25.6116522,15
25.630238,13
25.6488238,15
25.6674096,11
25.6859954,14
25.7045812,17
25.723167,23
25.7417528,25
25.7603386,12
25.7789244,13
25.7975102,14
25.816096,12
25.8346818,10
25.8532676,13
25.8718534,14
25.8904392,8
25.909025,23
25.9276108,18
25.9461966,10
25.9647824,20
25.9833682,17
26.001954,17
26.0205398,18
26.0391256,14
26.0577114,12
26.0762972,14
26.094883,7
26.1134688,20
26.1320546,21
26.1506404,13
26.1692262,13
26.187812,13
26.2063978,14
26.2249836,9
26.2435694,12
26.2621552,14
26.280741,15
26.2993268,16
26.3179126,12
26.3364984,14
26.3550842,9
26.37367,11
26.3922558,15
26.4108416,12
26.4294274,17
26.4480132,20
26.466599,11
26.4851848,20
26.5037706,13
26.5223564,16
26.5409422,14
26.559528,23
26.5781138,20
26.5966996,20
26.6152854,20
26.6338712,12
26.652457,12
26.6710428,19
26.6896286,13
26.7082144,8
26.7268002,14
26.745386,12
26.7639718,11
26.7825576,16
26.8011434,18
26.8197292,15
26.838315,17
26.8569008,14
26.8754866,20
26.8940724,20
26.9126582,28
26.931244,32
26.9498298,49
26.9684156,39
26.9870014,51
27.0055872,59
27.024173,46
27.0427588,27
27.0613446,47
27.0799304,26
27.0985162,18
27.117102,19
27.1356878,19
27.1542736,17
27.1728594,10
27.1914452,12
27.210031,11
27.2286168,16
27.2472026,13
27.2657884,17
27.2843742,12
27.30296,11
27.3215458,15
27.3401316,10
27.3587174,17
27.3773032,12
27.395889,11
27.4144748,13
27.4330606,15
27.4516464,20
27.4702322,14
27.488818,13
27.5074038,10
27.5259896,9
27.5445754,17
27.5631612,13
27.581747,12
27.6003328,6
27.6189186,21
27.6375044,11
27.6560902,15
27.674676,14
27.6932618,18
27.7118476,13
27.7304334,11
27.7490192,18
27.767605,16
27.7861908,9
27.8047766,17
27.8233624,11
27.8419482,12
27.860534,11
27.8791198,13
27.8977056,22
27.9162914,11
27.9348772,19
27.953463,17
27.9720488,12
27.9906346,11
28.0092204,12
28.0278062,14
28.046392,18
28.0649778,12
28.0835636,12
28.1021494,12
28.1207352,11
28.139321,18
28.1579068,11
28.1764926,13
28.1950784,11
28.2136642,14
28.23225,10
28.2508358,8
28.2694216,8
28.2880074,15
28.3065932,9
28.325179,8
28.3437648,11
28.3623506,11
28.3809364,13
28.3995222,13
28.418108,12
28.4366938,18
28.4552796,17
28.4738654,5
28.4924512,6
28.511037,10
28.5296228,17
28.5482086,11
28.5667944,15
28.5853802,9
28.603966,16
28.6225518,13
28.6411376,17
28.6597234,11
28.6783092,16
28.696895,9
28.7154808,7
28.7340666,14
28.7526524,15
28.7712382,17
28.789824,12
28.8084098,13
28.8269956,9
28.8455814,12
28.8641672,13
28.882753,20
28.9013388,13
28.9199246,18
28.9385104,10
28.9570962,17
28.975682,16
28.9942678,4
29.0128536,16
29.0314394,11
29.0500252,15
29.068611,12
29.0871968,12
29.1057826,12
29.1243684,20
29.1429542,14
29.16154,8
29.1801258,15
29.1987116,7
29.2172974,11
29.2358832,20
29.254469,14
29.2730548,16
29.2916406,9
29.3102264,13
29.3288122,16
29.347398,19
29.3659838,11
29.3845696,16
29.4031554,11
29.4217412,16
29.440327,13
29.4589128,16
29.4774986,12
29.4960844,7
29.5146702,12
29.533256,8
29.5518418,18
29.5704276,13
29.5890134,14
29.6075992,8
29.626185,10
29.6447708,12
29.6633566,24
29.6819424,12
29.7005282,7
29.719114,10
29.7376998,9
29.7562856,17
29.7748714,13
29.7934572,16
29.812043,14
29.8306288,21
29.8492146,15
29.8678004,9
29.8863862,21
29.904972,20
29.9235578,18
29.9421436,13
29.9607294,17
29.9793152,21
29.997901,13
30.0164868,11
30.0350726,22
30.0536584,13
30.0722442,13
30.09083,20
30.1094158,20
30.1280016,16
30.1465874,11
30.1651732,5
30.183759,9
30.2023448,10
30.2209306,12
30.2395164,8
30.2581022,11
30.276688,17
30.2952738,9
30.3138596,13
30.3324454,9
30.3510312,9
30.369617,11
30.3882028,12
30.4067886,18
30.4253744,10
30.4439602,12
30.462546,11
30.4811318,12
30.4997176,14
30.5183034,17
30.5368892,12
30.555475,12
30.5740608,10
30.5926466,14
30.6112324,10
30.6298182,15
30.648404,17
30.6669898,10
30.6855756,14
30.7041614,20
30.7227472,22
30.741333,14
30.7599188,12
30.7785046,11
30.7970904,17
30.8156762,13
30.834262,15
30.8528478,15
30.8714336,17
30.8900194,12
30.9086052,17
30.927191,13
30.9457768,13
30.9643626,15
30.9829484,16
31.0015342,17
31.02012,10
31.0387058,19
31.0572916,16
31.0758774,11
31.0944632,19
31.113049,14
31.1316348,22
31.1502206,27
31.1688064,33
31.1873922,41
31.205978,86
31.2245638,76
31.2431496,131
31.2617354,111
31.2803212,99
31.298907,64
31.3174928,65
31.3360786,93
31.3546644,44
31.3732502,34
31.391836,28
31.4104218,17
31.4290076,21
31.4475934,16
31.4661792,16
31.484765,17
31.5033508,17
31.5219366,13
31.5405224,14
31.5591082,16
31.577694,12
31.5962798,7
31.6148656,12
31.6334514,14
31.6520372,12
31.670623,12
31.6892088,17
31.7077946,11
31.7263804,18
31.7449662,15
31.763552,6
31.7821378,14
31.8007236,18
31.8193094,7
31.8378952,13
31.856481,15
31.8750668,13
31.8936526,15
31.9122384,15
31.9308242,11
31.94941,9
31.9679958,8
31.9865816,14
32.0051674,17
32.0237532,15
32.042339,14
32.0609248,9
32.0795106,9
32.0980964,21
32.1166822,10
32.135268,14
32.1538538,10
32.1724396,4
32.1910254,13
32.2096112,10
32.228197,10
32.2467828,17
32.2653686,16
32.2839544,15
32.3025402,14
32.321126,17
32.3397118,19
32.3582976,12
32.3768834,8
32.3954692,16
32.414055,18
32.4326408,7
32.4512266,19
32.4698124,13
32.4883982,5
32.506984,13
32.5255698,14
32.5441556,6
32.5627414,19
32.5813272,8
32.599913,11
32.6184988,10
32.6370846,11
32.6556704,10
32.6742562,18
32.692842,15
32.7114278,9
32.7300136,13
32.7485994,12
32.7671852,6
32.785771,14
32.8043568,11
32.8229426,11
32.8415284,10
32.8601142,10
32.8787,18
32.8972858,16
32.9158716,14
32.9344574,13
32.9530432,9
32.971629,18
32.9902148,12
33.0088006,5
33.0273864,9
33.0459722,9
33.064558,14
33.0831438,12
33.1017296,14
33.1203154,19
33.1389012,9
33.157487,21
33.1760728,14
33.1946586,10
33.2132444,14
33.2318302,15
33.250416,10
33.2690018,9
33.2875876,13
33.3061734,14
33.3247592,10
33.343345,12
33.3619308,13
33.3805166,15
33.3991024,14
33.4176882,13
33.436274,17
33.4548598,19
33.4734456,10
33.4920314,10
33.5106172,11
33.529203,13
33.5477888,12
33.5663746,12
33.5849604,14
33.6035462,13
33.622132,8
33.6407178,12
33.6593036,13
33.6778894,15
33.6964752,12
33.715061,12
33.7336468,18
33.7522326,11
33.7708184,14
33.7894042,8
33.80799,10
33.8265758,10
33.8451616,4
33.8637474,14
33.8823332,14
33.900919,13
33.9195048,7
33.9380906,8
33.9566764,13
33.9752622,10
33.993848,7
34.0124338,12
34.0310196,11
34.0496054,13
34.0681912,9
34.086777,14
34.1053628,6
34.1239486,9
34.1425344,10
34.1611202,8
34.179706,9
34.1982918,14
34.2168776,16
34.2354634,17
34.2540492,17
34.272635,8
34.2912208,8
34.3098066,15
34.3283924,18
34.3469782,21
34.365564,12
34.3841498,4
34.4027356,13
34.4213214,13
34.4399072,11
34.458493,6
34.4770788,26
34.4956646,13
34.5142504,19
34.5328362,13
34.551422,10
34.5700078,16
34.5885936,14
34.6071794,11
34.6257652,12
34.644351,15
34.6629368,8
34.6815226,10
34.7001084,8
34.7186942,21
34.73728,10
34.7558658,12
34.7744516,13
34.7930374,7
34.8116232,13
34.830209,17
34.8487948,14
34.8673806,10
34.8859664,11
34.9045522,14
34.923138,21
34.9417238,9
34.9603096,14
34.9788954,8
34.9974812,10
35.016067,11
35.0346528,16
35.0532386,14
35.0718244,11
35.0904102,15
35.108996,10
35.1275818,13
35.1461676,11
35.1647534,12
35.1833392,15
35.201925,9
35.2205108,9
35.2390966,13
35.2576824,15
35.2762682,13
35.294854,13
35.3134398,14
35.3320256,6
35.3506114,9
35.3691972,7
35.387783,9
35.4063688,3
35.4249546,13
35.4435404,17
35.4621262,13
35.480712,10
35.4992978,7
35.5178836,15
35.5364694,18
35.5550552,10
35.573641,17
35.5922268,5
35.6108126,14
35.6293984,16
35.6479842,14
35.66657,17
35.6851558,17
35.7037416,10
35.7223274,8
35.7409132,14
35.759499,16
35.7780848,16
35.7966706,9
35.8152564,9
35.8338422,11
35.852428,15
35.8710138,9
35.8895996,17
35.9081854,14
35.9267712,15
35.945357,13
35.9639428,9
35.9825286,15
36.0011144,9
36.0197002,11
36.038286,19
36.0568718,11
36.0754576,14
36.0940434,9
36.1126292,18
36.131215,15
36.1498008,7
36.1683866,8
36.1869724,5
36.2055582,10
36.224144,6
36.2427298,10
36.2613156,18
36.2799014,13
36.2984872,19
36.317073,10
36.3356588,12
36.3542446,12
36.3728304,14
36.3914162,8
36.410002,15
36.4285878,9
36.4471736,13
36.4657594,9
36.4843452,11
36.502931,7
36.5215168,13
36.5401026,20
36.5586884,9
36.5772742,21
36.59586,17
36.6144458,20
36.6330316,17
36.6516174,26
36.6702032,30
36.688789,39
36.7073748,64
36.7259606,124
36.7445464,191
36.7631322,269
36.781718,255
36.8003038,211
36.8188896,161
36.8374754,193
36.8560612,179
36.874647,143
36.8932328,123
36.9118186,54
36.9304044,53
36.9489902,41
36.967576,34
36.9861618,24
37.0047476,27
37.0233334,15
37.0419192,16
37.060505,9
37.0790908,20
37.0976766,14
37.1162624,15
37.1348482,19
37.153434,16
37.1720198,22
37.1906056,20
37.2091914,19
37.2277772,17
37.246363,15
37.2649488,21
37.2835346,9
37.3021204,17
37.3207062,14
37.339292,18
37.3578778,11
37.3764636,15
37.3950494,11
37.4136352,18
37.432221,15
37.4508068,14
37.4693926,10
37.4879784,12
37.5065642,12
37.52515,11
37.5437358,14
37.5623216,10
37.5809074,19
37.5994932,18
37.618079,8
37.6366648,7
37.6552506,16
37.6738364,13
37.6924222,18
37.711008,14
37.7295938,13
37.7481796,15
37.7667654,15
37.7853512,17
37.803937,15
37.8225228,9
37.8411086,14
37.8596944,14
37.8782802,18
37.896866,13
37.9154518,19
37.9340376,12
37.9526234,12
37.9712092,14
37.989795,7
38.0083808,10
38.0269666,22
38.0455524,18
38.0641382,19
38.082724,12
38.1013098,16
38.1198956,15
38.1384814,14
38.1570672,14
38.175653,17
38.1942388,14
38.2128246,28
38.2314104,19
38.2499962,13
38.268582,14
38.2871678,23
38.3057536,30
38.3243394,22
38.3429252,37
38.361511,31
38.3800968,73
38.3986826,106
38.4172684,268
38.4358542,272
38.45444,397
38.4730258,442
38.4916116,359
38.5101974,245
38.5287832,298
38.547369,317
38.5659548,309
38.5845406,244
38.6031264,106
38.6217122,126
38.640298,133
38.6588838,179
38.6774696,168
38.6960554,218
38.7146412,168
38.733227,74
38.7518128,49
38.7703986,38
38.7889844,29
38.8075702,23
38.826156,26
38.8447418,25
38.8633276,16
38.8819134,12
38.9004992,11
38.919085,12
38.9376708,16
38.9562566,9
38.9748424,19
38.9934282,24
39.012014,13
39.0305998,19
39.0491856,7
39.0677714,12
39.0863572,10
39.104943,14
39.1235288,13
39.1421146,20
39.1607004,17
39.1792862,13
39.197872,13
39.2164578,10
39.2350436,12
39.2536294,9
39.2722152,8
39.290801,14
39.3093868,7
39.3279726,14
39.3465584,11
39.3651442,7
39.38373,13
39.4023158,15
39.4209016,13
39.4394874,14
39.4580732,11
39.476659,17
39.4952448,15
39.5138306,16
39.5324164,13
39.5510022,12
39.569588,8
39.5881738,11
39.6067596,18
39.6253454,16
39.6439312,16
39.662517,9
39.6811028,11
39.6996886,12
39.7182744,15
39.7368602,12
39.755446,11
39.7740318,12
39.7926176,15
39.8112034,12
39.8297892,13
39.848375,10
39.8669608,7
39.8855466,9
39.9041324,11
39.9227182,12
39.941304,9
39.9598898,15
39.9784756,10
39.9970614,13
40.0156472,12
40.034233,13
40.0528188,11
40.0714046,14
40.0899904,12
40.1085762,13
40.127162,11
40.1457478,13
40.1643336,12
40.1829194,16
40.2015052,12
40.220091,11
40.2386768,13
40.2572626,14
40.2758484,13
40.2944342,13
40.31302,13
40.3316058,8
40.3501916,10
40.3687774,6
40.3873632,15
40.405949,14
40.4245348,11
40.4431206,13
40.4617064,11
40.4802922,10
40.498878,10
40.5174638,5
40.5360496,12
40.5546354,15
40.5732212,15
40.591807,11
40.6103928,7
40.6289786,13
40.6475644,14
40.6661502,13
40.684736,5
40.7033218,5
40.7219076,12
40.7404934,13
40.7590792,19
40.777665,6
40.7962508,7
40.8148366,12
40.8334224,8
40.8520082,16
40.870594,12
40.8891798,14
40.9077656,7
40.9263514,10
40.9449372,13
40.963523,7
40.9821088,10
41.0006946,17
41.0192804,14
41.0378662,12
41.056452,10
41.0750378,15
41.0936236,14
41.1122094,12
41.1307952,11
41.149381,10
41.1679668,10
41.1865526,10
41.2051384,13
41.2237242,10
41.24231,14
41.2608958,9
41.2794816,13
41.2980674,11
41.3166532,9
41.335239,9
41.3538248,11
41.3724106,6
41.3909964,11
41.4095822,15
41.428168,10
41.4467538,11
41.4653396,8
41.4839254,16
41.5025112,12
41.521097,8
41.5396828,10
41.5582686,3
41.5768544,6
41.5954402,15
41.614026,12
41.6326118,10
41.6511976,16
41.6697834,8
41.6883692,15
41.706955,12
41.7255408,3
41.7441266,16
41.7627124,12
41.7812982,12
41.799884,12
41.8184698,5
41.8370556,7
41.8556414,10
41.8742272,12
41.892813,13
41.9113988,13
41.9299846,11
41.9485704,10
41.9671562,7
41.985742,9
42.0043278,11
42.0229136,8
42.0414994,4
42.0600852,11
42.078671,10
42.0972568,16
42.1158426,14
42.1344284,14
42.1530142,5
42.1716,13
42.1901858,11
42.2087716,11
42.2273574,7
42.2459432,11
42.264529,7
42.2831148,12
42.3017006,7
42.3202864,5
42.3388722,11
42.357458,10
42.3760438,12
42.3946296,7
42.4132154,9
42.4318012,8
42.450387,8
42.4689728,9
42.4875586,8
42.5061444,6
42.5247302,16
42.543316,14
42.5619018,11
42.5804876,9
42.5990734,8
42.6176592,11
42.636245,9
42.6548308,8
42.6734166,9
42.6920024,11
42.7105882,8
42.729174,9
42.7477598,12
42.7663456,8
42.7849314,13
42.8035172,9
42.822103,13
42.8406888,8
42.8592746,14
42.8778604,7
42.8964462,12
42.915032,8
42.9336178,13
42.9522036,7
42.9707894,6
42.9893752,14
43.007961,10
43.0265468,12
43.0451326,10
43.0637184,13
43.0823042,4
43.10089,5
43.1194758,12
43.1380616,13
43.1566474,10
43.1752332,11
43.193819,16
43.2124048,5
43.2309906,11
43.2495764,8
43.2681622,12
43.286748,15
43.3053338,10
43.3239196,13
43.3425054,8
43.3610912,5
43.379677,15
43.3982628,15
43.4168486,10
43.4354344,8
43.4540202,9
43.472606,6
43.4911918,10
43.5097776,8
43.5283634,10
43.5469492,13
43.565535,15
43.5841208,6
43.6027066,3
43.6212924,13
43.6398782,11
43.658464,15
43.6770498,7
43.6956356,13
43.7142214,9
43.7328072,12
43.751393,17
43.7699788,10
43.7885646,15
43.8071504,8
43.8257362,19
43.844322,15
43.8629078,9
43.8814936,11
43.9000794,11
43.9186652,12
43.937251,14
43.9558368,10
43.9744226,9
43.9930084,8
44.0115942,10
44.03018,13
44.0487658,9
44.0673516,12
44.0859374,9
44.1045232,10
44.123109,10
44.1416948,14
44.1602806,8
44.1788664,17
44.1974522,7
44.216038,7
44.2346238,14
44.2532096,15
44.2717954,10
44.2903812,8
44.308967,14
44.3275528,11
44.3461386,15
44.3647244,14
44.3833102,13
44.401896,12
44.4204818,10
44.4390676,10
44.4576534,12
44.4762392,11
44.494825,13
44.5134108,13
44.5319966,10
44.5505824,15
44.5691682,21
44.587754,16
44.6063398,14
44.6249256,22
44.6435114,50
44.6620972,60
44.680683,44
44.6992688,49
44.7178546,52
44.7364404,97
44.7550262,71
44.773612,58
44.7921978,60
44.8107836,40
44.8293694,40
44.8479552,45
44.866541,35
44.8851268,27
44.9037126,21
44.9222984,15
44.9408842,8
44.95947,10
44.9780558,16
44.9966416,12
45.0152274,8
45.0338132,15
45.052399,10
45.0709848,4
45.0895706,19
45.1081564,9
45.1267422,13
45.145328,12
45.1639138,18
45.1824996,9
45.2010854,8
45.2196712,13
45.238257,11
45.2568428,12
45.2754286,10
45.2940144,9
45.3126002,9
45.331186,12
45.3497718,15
45.3683576,16
45.3869434,13
45.4055292,9
45.424115,12
45.4427008,6
45.4612866,8
45.4798724,12
45.4984582,15
45.517044,12
45.5356298,7
45.5542156,20
45.5728014,17
45.5913872,15
45.609973,7
45.6285588,13
45.6471446,5
45.6657304,12
45.6843162,9
45.702902,12
45.7214878,8
45.7400736,16
45.7586594,10
45.7772452,7
45.795831,12
45.8144168,6
45.8330026,12
45.8515884,7
45.8701742,11
45.88876,8
45.9073458,11
45.9259316,13
45.9445174,5
45.9631032,9
45.981689,11
46.0002748,9
46.0188606,6
46.0374464,10
46.0560322,10
46.074618,8
46.0932038,5
46.1117896,11
46.1303754,5
46.1489612,11
46.167547,11
46.1861328,10
46.2047186,14
46.2233044,10
46.2418902,17
46.260476,15
46.2790618,16
46.2976476,13
46.3162334,7
46.3348192,9
46.353405,6
46.3719908,12
46.3905766,6
46.4091624,9
46.4277482,15
46.446334,8
46.4649198,8
46.4835056,5
46.5020914,9
46.5206772,8
46.539263,8
46.5578488,7
46.5764346,10
46.5950204,9
46.6136062,9
46.632192,7
46.6507778,8
46.6693636,8
46.6879494,9
46.7065352,11
46.725121,6
46.7437068,6
46.7622926,7
46.7808784,7
46.7994642,8
46.81805,10
46.8366358,9
46.8552216,14
46.8738074,9
46.8923932,12
46.910979,7
46.9295648,8
46.9481506,5
46.9667364,9
46.9853222,17
47.003908,13
47.0224938,7
47.0410796,5
47.0596654,9
47.0782512,10
47.096837,4
47.1154228,12
47.1340086,9
47.1525944,15
47.1711802,13
47.189766,5
47.2083518,8
47.2269376,9
47.2455234,6
47.2641092,9
47.282695,7
47.3012808,12
47.3198666,8
47.3384524,8
47.3570382,10
47.375624,8
47.3942098,11
47.4127956,11
47.4313814,5
47.4499672,7
47.468553,7
47.4871388,11
47.5057246,14
47.5243104,11
47.5428962,13
47.561482,6
47.5800678,9
47.5986536,15
47.6172394,14
47.6358252,10
47.654411,11
47.6729968,10
47.6915826,13
47.7101684,11
47.7287542,12
47.74734,14
47.7659258,10
47.7845116,10
47.8030974,7
47.8216832,8
47.840269,9
47.8588548,10
47.8774406,14
47.8960264,10
47.9146122,4
47.933198,13
47.9517838,9
47.9703696,9
47.9889554,7
48.0075412,8
48.026127,11
48.0447128,18
48.0632986,11
48.0818844,8
48.1004702,7
48.119056,6
48.1376418,13
48.1562276,10
48.1748134,8
48.1933992,17
48.211985,8
48.2305708,6
48.2491566,12
48.2677424,10
48.2863282,6
48.304914,7
48.3234998,11
48.3420856,10
48.3606714,5
48.3792572,8
48.397843,13
48.4164288,14
48.4350146,11
48.4536004,12
48.4721862,8
48.490772,7
48.5093578,8
48.5279436,9
48.5465294,9
48.5651152,8
48.583701,6
48.6022868,8
48.6208726,10
48.6394584,8
48.6580442,8
48.67663,10
48.6952158,5
48.7138016,8
48.7323874,5
48.7509732,14
48.769559,3
48.7881448,10
48.8067306,13
48.8253164,8
48.8439022,13
48.862488,13
48.8810738,28
48.8996596,57
48.9182454,61
48.9368312,61
48.955417,77
48.9740028,80
48.9925886,56
49.0111744,39
49.0297602,42
49.048346,55
49.0669318,54
49.0855176,33
49.1041034,48
49.1226892,33
49.141275,18
49.1598608,20
49.1784466,15
49.1970324,19
49.2156182,15
49.234204,12
49.2527898,7
49.2713756,6
49.2899614,16
49.3085472,6
49.327133,9
49.3457188,12
49.3643046,16
49.3828904,8
49.4014762,9
49.420062,3
49.4386478,13
49.4572336,8
49.4758194,5
49.4944052,15
49.512991,16
49.5315768,10
49.5501626,14
49.5687484,12
49.5873342,10
49.60592,10
49.6245058,10
49.6430916,11
49.6616774,15
49.6802632,14
49.698849,9
49.7174348,10
49.7360206,14
49.7546064,10
49.7731922,9
49.791778,12
49.8103638,12
49.8289496,9
49.8475354,8
49.8661212,13
49.884707,9
49.9032928,14
49.9218786,13
49.9404644,10
49.9590502,13
49.977636,7
49.9962218,7
50.0148076,12
50.0333934,10
50.0519792,8
50.070565,14
50.0891508,5
50.1077366,11
50.1263224,8
50.1449082,17
50.163494,12
50.1820798,9
50.2006656,15
50.2192514,12
50.2378372,27
50.256423,35
50.2750088,45
50.2935946,60
50.3121804,62
50.3307662,56
50.349352,30
50.3679378,34
50.3865236,35
50.4051094,24
50.4236952,41
50.442281,23
50.4608668,23
50.4794526,16
50.4980384,12
50.5166242,16
50.53521,15
50.5537958,16
50.5723816,9
50.5909674,16
50.6095532,6
50.628139,17
50.6467248,11
50.6653106,7
50.6838964,9
50.7024822,11
50.721068,4
50.7396538,9
50.7582396,11
50.7768254,12
50.7954112,9
50.813997,10
50.8325828,6
50.8511686,8
50.8697544,12
50.8883402,6
50.906926,12
50.9255118,13
50.9440976,11
50.9626834,15
50.9812692,7
50.999855,6
51.0184408,12
51.0370266,10
51.0556124,8
51.0741982,11
51.092784,5
51.1113698,11
51.1299556,11
51.1485414,8
51.1671272,10
51.185713,15
51.2042988,10
51.2228846,6
51.2414704,4
51.2600562,10
51.278642,8
51.2972278,16
51.3158136,7
51.3343994,11
51.3529852,13
51.371571,10
51.3901568,11
51.4087426,8
51.4273284,5
51.4459142,15
51.4645,10
51.4830858,8
51.5016716,8
51.5202574,5
51.5388432,16
51.557429,9
51.5760148,10
51.5946006,9
51.6131864,18
51.6317722,20
51.650358,13
51.6689438,11
51.6875296,7
51.7061154,5
51.7247012,22
51.743287,20
51.7618728,17
51.7804586,17
51.7990444,35
51.8176302,19
51.836216,28
51.8548018,16
51.8733876,12
51.8919734,18
51.9105592,11
51.929145,19
51.9477308,7
51.9663166,13
51.9849024,12
52.0034882,23
52.022074,10
52.0406598,10
52.0592456,11
52.0778314,7
52.0964172,12
52.115003,9
52.1335888,12
52.1521746,10
52.1707604,12
52.1893462,8
52.207932,10
52.2265178,9
52.2451036,9
52.2636894,6
52.2822752,8
52.300861,8
52.3194468,8
52.3380326,9
52.3566184,9
52.3752042,12
52.39379,12
52.4123758,9
52.4309616,15
52.4495474,13
52.4681332,11
52.486719,4
52.5053048,7
52.5238906,12
52.5424764,10
52.5610622,11
52.579648,3
52.5982338,8
52.6168196,10
52.6354054,11
52.6539912,11
52.672577,9
52.6911628,9
52.7097486,6
52.7283344,8
52.7469202,17
52.765506,12
52.7840918,8
52.8026776,8
52.8212634,16
52.8398492,6
52.858435,7
52.8770208,10
52.8956066,11
52.9141924,10
52.9327782,13
52.951364,7
52.9699498,11
52.9885356,8
53.0071214,12
53.0257072,6
53.044293,7
53.0628788,7
53.0814646,13
53.1000504,7
53.1186362,9
53.137222,7
53.1558078,6
53.1743936,3
53.1929794,13
53.2115652,13
53.230151,10
53.2487368,13
53.2673226,11
53.2859084,16
53.3044942,13
53.32308,9
53.3416658,10
53.3602516,11
53.3788374,18
53.3974232,8
53.416009,12
53.4345948,10
53.4531806,10
53.4717664,11
53.4903522,8
53.508938,10
53.5275238,7
53.5461096,7
53.5646954,9
53.5832812,9
53.601867,9
53.6204528,13
53.6390386,8
53.6576244,8
53.6762102,7
53.694796,6
53.7133818,11
53.7319676,8
53.7505534,9
53.7691392,12
53.787725,12
53.8063108,5
53.8248966,11
53.8434824,10
53.8620682,10
53.880654,5
53.8992398,17
53.9178256,11
53.9364114,18
53.9549972,13
53.973583,10
53.9921688,14
54.0107546,12
54.0293404,6
54.0479262,7
54.066512,10
54.0850978,3
54.1036836,10
54.1222694,11
54.1408552,10
54.159441,11
54.1780268,9
54.1966126,8
54.2151984,11
54.2337842,10
54.25237,8
54.2709558,8
54.2895416,12
54.3081274,8
54.3267132,5
54.345299,9
54.3638848,11
54.3824706,4
54.4010564,9
54.4196422,8
54.438228,11
54.4568138,8
54.4753996,14
54.4939854,10
54.5125712,7
54.531157,4
54.5497428,4
54.5683286,6
54.5869144,11
54.6055002,13
54.624086,6
54.6426718,13
54.6612576,10
54.6798434,6
54.6984292,7
54.717015,10
54.7356008,9
54.7541866,10
54.7727724,8
54.7913582,4
54.809944,11
54.8285298,11
54.8471156,7
54.8657014,8
54.8842872,7
54.902873,13
54.9214588,8
54.9400446,11
54.9586304,11
54.9772162,11
54.995802,13
55.0143878,13
55.0329736,14
55.0515594,12
55.0701452,15
55.088731,11
55.1073168,11
55.1259026,12
55.1444884,3
55.1630742,12
55.18166,7
55.2002458,12
55.2188316,12
55.2374174,13
55.2560032,7
55.274589,7
55.2931748,8
55.3117606,16
55.3303464,13
55.3489322,9
55.367518,17
55.3861038,14
55.4046896,19
55.4232754,26
55.4418612,56
55.460447,57
55.4790328,97
55.4976186,144
55.5162044,114
55.5347902,67
55.553376,35
55.5719618,35
55.5905476,29
55.6091334,44
55.6277192,86
55.646305,93
55.6648908,66
55.6834766,34
55.7020624,20
55.7206482,10
55.739234,14
55.7578198,17
55.7764056,13
55.7949914,9
55.8135772,12
55.832163,9
55.8507488,10
55.8693346,12
55.8879204,9
55.9065062,8
55.925092,10
55.9436778,19
55.9622636,8
55.9808494,11
55.9994352,13
56.018021,10
56.0366068,19
56.0551926,3
56.0737784,11
56.0923642,11
56.11095,11
56.1295358,8
56.1481216,10
56.1667074,14
56.1852932,6
56.203879,7
56.2224648,6
56.2410506,7
56.2596364,6
56.2782222,12
56.296808,12
56.3153938,8
56.3339796,12
56.3525654,13
56.3711512,7
56.389737,13
56.4083228,6
56.4269086,7
56.4454944,11
56.4640802,13
56.482666,8
56.5012518,3
56.5198376,8
56.5384234,8
56.5570092,18
56.575595,6
56.5941808,8
56.6127666,8
56.6313524,13
56.6499382,9
56.668524,10
56.6871098,7
56.7056956,14
56.7242814,10
56.7428672,9
56.761453,12
56.7800388,7
56.7986246,8
56.8172104,11
56.8357962,10
56.854382,9
56.8729678,11
56.8915536,5
56.9101394,5
56.9287252,11
56.947311,6
56.9658968,7
56.9844826,8
57.0030684,9
57.0216542,9
57.04024,9
57.0588258,8
57.0774116,7
57.0959974,12
57.1145832,12
57.133169,6
57.1517548,2
57.1703406,11
57.1889264,12
57.2075122,9
57.226098,6
57.2446838,4
57.2632696,8
57.2818554,13
57.3004412,11
57.319027,7
57.3376128,12
57.3561986,11
57.3747844,11
57.3933702,8
57.411956,11
57.4305418,7
57.4491276,12
57.4677134,7
57.4862992,17
57.504885,8
57.5234708,9
57.5420566,6
57.5606424,9
57.5792282,10
57.597814,13
57.6163998,9
57.6349856,10
57.6535714,10
57.6721572,10
57.690743,15
57.7093288,8
57.7279146,10
57.7465004,11
57.7650862,6
57.783672,16
57.8022578,8
57.8208436,10
57.8394294,20
57.8580152,7
57.876601,10
57.8951868,13
57.9137726,10
57.9323584,11
57.9509442,9
57.96953,12
57.9881158,7
58.0067016,9
58.0252874,8
58.0438732,14
58.062459,4
58.0810448,6
58.0996306,17
58.1182164,14
58.1368022,11
58.155388,9
58.1739738,19
58.1925596,15
58.2111454,19
58.2297312,12
58.248317,6
58.2669028,12
58.2854886,10
58.3040744,15
58.3226602,21
58.341246,12
58.3598318,14
58.3784176,10
58.3970034,11
58.4155892,14
58.434175,13
58.4527608,9
58.4713466,10
58.4899324,3
58.5085182,14
58.527104,12
58.5456898,15
58.5642756,13
58.5828614,9
58.6014472,2
58.620033,10
58.6386188,10
58.6572046,10
58.6757904,10
58.6943762,13
58.712962,9
58.7315478,14
58.7501336,10
58.7687194,6
58.7873052,12
58.805891,12
58.8244768,7
58.8430626,12
58.8616484,13
58.8802342,8
58.89882,14
58.9174058,9
58.9359916,12
58.9545774,5
58.9731632,10
58.991749,11
59.0103348,11
59.0289206,22
59.0475064,21
59.0660922,24
59.084678,32
59.1032638,44
59.1218496,84
59.1404354,110
59.1590212,124
59.177607,125
59.1961928,93
59.2147786,101
59.2333644,77
59.2519502,65
59.270536,68
59.2891218,70
59.3077076,86
59.3262934,82
59.3448792,92
59.363465,69
59.3820508,79
59.4006366,41
59.4192224,36
59.4378082,20
59.456394,16
59.4749798,24
59.4935656,17
59.5121514,15
59.5307372,7
59.549323,20
59.5679088,10
59.5864946,9
59.6050804,12
59.6236662,17
59.642252,12
59.6608378,9
59.6794236,6
59.6980094,17
59.7165952,9
59.735181,6
59.7537668,13
59.7723526,9
59.7909384,11
59.8095242,11
59.82811,3
59.8466958,10
59.8652816,12
59.8838674,10
59.9024532,10
59.921039,6
59.9396248,7
59.9582106,16
59.9767964,7
59.9953822,8
60.013968,8
60.0325538,7
