'y-axis saved as y
'x,ML_Wallace_04122019_1_NN_1_ZrP_CrucibleRetest_5-60_4min_BkgSubtracted.raw
5,-22.6052856
5.0185858,-22.4499512
5.0371716,-12.9587402
5.0557574,-8.46685791
5.0743432,0.0258178711
5.092929,-11.480835
5.1115148,18.0132446
5.1301006,-11.4919739
5.1486864,27.00354
5.1672722,14.4997864
5.185858,-17.0032349
5.2044438,21.4944458
5.2230296,11.9928589
5.2416154,-23.5080261
5.2602012,14.9918518
5.278787,-37.5075989
5.2973728,36.9937134
5.3159586,29.4957275
5.3345444,37.9984436
5.3531302,-5.49807739
5.371716,-20.9938965
5.3903018,5.4046936
5.4088876,8.8039856
5.4274734,-14.79599
5.4460592,7.60476685
5.464645,-67.9937744
5.4832308,-7.37350464
5.5018166,-7.75250244
5.5204024,-0.13079834
5.5389882,27.4916382
5.557574,-7.88519287
5.5761598,-19.261322
5.5947456,-9.63671875
5.6133314,-19.0113831
5.6319172,29.6146545
5.650503,41.2414246
5.6690888,-15.1311035
5.6876746,-18.5028687
5.7062604,8.1260376
5.7248462,-25.2442932
5.743432,13.3860779
5.7620178,37.0171814
5.7806036,-25.3510132
5.7991894,28.2815247
5.8177752,31.9147949
5.836361,21.5487671
5.8549468,10.1834717
5.8735326,15.8188782
5.8921184,-5.54495239
5.9107042,15.0918884
5.92929,-3.27050781
5.9478758,9.36779785
5.9664616,-18.9931641
5.9850474,-8.49441528
6.0036332,14.0050354
6.022219,19.5052185
6.0408048,3.00610352
6.0593906,-5.49224854
6.0779764,14.0100708
6.0965622,27.5131531
6.115148,17.0169373
6.1337338,27.5214539
6.1523196,-19.9733276
6.1709054,-18.4673767
6.1894912,25.0393066
6.208077,9.54669189
6.2266628,4.05480957
6.2452486,12.5636597
6.2638344,22.0732117
6.2824202,20.5834961
6.301006,15.0945129
6.3195918,-1.39376831
6.3381776,-2.88131714
6.3567634,21.6318359
6.3753492,4.14572144
6.393935,4.66033936
6.4125208,15.1756897
6.4311066,17.6917419
6.4496924,-13.7915039
6.4682782,18.7260132
6.486864,14.2442322
6.5054498,2.76315308
6.5240356,-5.7171936
6.5426214,10.8031921
6.5612072,-4.6756897
6.579793,12.8461304
6.5983788,14.3686829
6.6169646,4.89193726
6.6355504,5.41592407
6.6541362,-13.0593567
6.672722,34.466095
6.6913078,-11.0077667
6.7098936,11.5191193
6.7284794,4.04670715
6.7470652,34.5750275
6.765651,4.10406494
6.7842368,1.63383484
6.8028226,4.16430664
6.8214084,-14.3044739
6.8399942,8.22744751
6.85858,1.76008606
6.8771658,-5.70654297
6.8957516,-12.1724548
6.9143374,11.3623657
6.9329232,17.8979034
6.951509,7.43415833
6.9700948,-5.02886963
6.9886806,-14.4911652
7.0072664,5.00598145
7.0258522,17.5038452
7.044438,30.0024414
7.0630238,8.50175476
7.0816096,1.00178528
7.1001954,10.502533
7.1187812,11.0040131
7.137367,0.506210327
7.1559528,-20.9908752
7.1745386,0.500869751
7.1931244,2.99333191
7.2117102,22.4865265
7.230296,12.980423
7.2488818,1.47506714
7.2674676,5.97041321
7.2860534,-0.533508301
7.3046392,-15.0367279
7.323225,6.46080017
7.3418108,-4.04096985
7.3603966,-1.54200745
7.3789824,5.95767212
7.3975682,8.45806885
7.416154,3.959198
7.4347398,0.461044312
7.4533256,1.96360779
7.4719114,16.4669037
7.4904972,-1.02909851
7.509083,-2.52436829
7.5276688,3.98109436
7.5462546,20.4872589
7.5648404,-6.00584412
7.5834262,-3.49822998
7.602012,-13.9898834
7.6205978,4.15869141
7.6391836,-14.6920166
7.6577694,7.45800781
7.6763552,-6.39125061
7.694941,-1.23979187
7.7135268,-6.08761597
7.7321126,3.06529236
7.7506984,-1.78108215
7.7692842,-1.6267395
7.78787,-12.4716797
7.8064558,20.6841125
7.8250416,5.84062195
7.8436274,-7.00213623
7.8622132,0.155807495
7.880799,7.31448364
7.8993848,12.473877
7.9179706,1.63400269
7.9365564,14.7948456
7.9551422,-11.0435944
7.973728,-12.8813171
7.9923138,19.2816925
8.0108996,18.4454193
8.0294854,2.60986328
8.0480712,-11.2249756
8.066657,-11.1803436
8.0852428,-8.16955566
8.1038286,32.8419495
8.1224144,20.854187
8.1410002,18.8671265
8.159586,26.8808136
8.1781718,10.8952026
8.1967576,26.9103241
8.2153434,-10.0738525
8.2339292,0.942718506
8.252515,-7.04000854
8.2711008,13.9779968
8.2896866,-15.0032806
8.3082724,12.0161591
8.3268582,6.03633118
8.345444,-13.9427795
8.3640298,15.0788269
8.3826156,23.1011658
8.4012014,-0.875793457
8.4197872,16.1479797
8.438373,-0.827514648
8.4569588,-10.8023071
8.4755446,-5.77636719
8.4941304,-2.74971008
8.5127162,15.2776794
8.531302,17.3057861
8.5498878,16.33461
8.5684736,-0.635848999
8.5870594,-19.6055908
8.6056452,15.4253998
8.624231,2.4571228
8.6428168,37.4895477
8.6614026,4.52270508
8.6799884,9.55657959
8.6985742,-20.4088287
8.71716,13.6264954
8.7357458,14.6625214
8.7543316,8.69929504
8.7729174,5.73677063
8.7915032,-1.22502136
8.810089,8.81390381
8.8286748,3.85354614
8.8472606,0.893920898
8.8658464,0.934997559
8.8844322,1.97680664
8.903018,38.0193481
8.9216038,-1.93739319
8.9401896,5.10658264
8.9587754,1.15127563
8.9773612,13.1966858
8.995947,-11.7571716
9.0145328,-2.71031189
9.0331186,14.3372803
9.0517044,-15.6144257
9.0702902,-0.56539917
9.088876,7.48435974
9.1074618,14.5348206
9.1260476,14.5860138
9.1446334,6.63792419
9.1632192,11.6905518
9.181805,-6.25608826
9.2003908,-3.20201111
9.2189766,13.8527832
9.2375624,-8.09169006
9.2561482,-11.0354614
9.274734,29.0215149
9.2933198,24.0791931
9.3119056,2.13760376
9.3304914,6.19671631
9.3490772,26.2565765
9.367663,5.31713867
9.3862488,7.37843323
9.4048346,17.4404449
9.4234204,-4.49682617
9.4420062,-0.433364868
9.460592,7.6308136
9.4791778,6.69570923
9.4977636,20.7613373
9.5163494,10.8276672
9.5349352,14.8947296
9.553521,22.9625244
9.5721068,-3.96897888
9.5906926,0.100250244
9.6092784,-3.82980347
9.6278642,-4.75912476
9.64645,-13.6877289
9.6650358,7.38438416
9.6836216,1.45721436
9.7022074,13.5307617
9.7207932,7.6050415
9.739379,-0.319961548
9.7579648,15.7557678
9.7765506,19.8322144
9.7951364,-29.0906219
9.8137222,8.98725891
9.832308,11.0658722
9.8508938,-8.85481262
9.8694796,13.2252502
9.8880654,9.30601501
9.9066512,-15.6124878
9.925237,15.4697266
9.9438228,10.5526581
9.9624086,5.63630676
9.9809944,4.72068787
9.9995802,-7.19421387
10.018166,15.8916168
10.0367518,5.97816467
10.0553376,46.0654144
10.0739234,-1.84658813
10.0925092,15.2421112
10.111095,8.33154297
10.1296808,-12.5783081
10.1482666,14.5125732
10.1668524,3.60415649
10.1854382,27.6964722
10.204024,0.789505005
10.2226098,9.88327026
10.2411956,10.9777527
10.2597814,33.0729523
10.2783672,-0.831130981
10.296953,0.265518188
10.3155388,14.3628845
10.3341246,12.460968
10.3527104,-1.44021606
10.3712962,-3.34069824
10.389882,7.759552
10.4084678,37.8605347
10.4270536,35.9622192
10.4456394,10.0646362
10.4642252,2.16778564
10.482811,18.271637
10.5013968,13.3762207
10.5199826,14.4815216
10.5385684,-0.412460327
10.5571542,14.6942902
10.57574,8.80175781
10.5943258,-10.0900574
10.6129116,1.01885223
10.6314974,-11.871521
10.6500832,12.2388306
10.668669,8.34990692
10.6872548,22.4617004
10.7058406,19.5742188
10.7244264,7.68745422
10.7430122,-2.19858551
10.761598,14.9160995
10.7801838,23.0315018
10.7987696,-17.8523788
10.8173554,-3.73552704
10.8359412,-4.6179657
10.854527,11.5003281
10.8731128,2.61933136
10.8916986,24.7390671
10.9102844,11.85952
10.9288702,11.98069
10.947456,5.10259247
10.9660418,-4.77479553
10.9846276,8.34854889
11.0032134,34.4726028
11.0217992,-10.4026108
11.040385,-6.27710724
11.0589708,19.8491135
11.0775566,47.976059
11.0961424,-8.89627075
11.1147282,4.2321167
11.133314,2.36122894
11.1518998,-0.508934021
11.1704856,1.62161255
11.1890714,6.75289154
11.2076572,-7.1151123
11.226243,4.01760864
11.2448288,17.1510468
11.2634146,-0.714790344
11.2820004,5.42008972
11.3005862,8.55569458
11.319172,30.6920166
11.3377578,12.8290634
11.3563436,10.966835
11.3749294,5.10532379
11.3935152,0.244537354
11.412101,-1.61553192
11.4306868,6.5251236
11.4492726,5.66650391
11.4678584,13.8086014
11.4864442,19.951416
11.50503,9.09495544
11.5236158,7.23921967
11.5422016,-6.61579895
11.5607874,17.5299072
11.5793732,3.6763382
11.597959,20.8234787
11.6165448,8.97135162
11.6351306,16.1199417
11.6537164,22.2692566
11.6723022,9.41928864
11.690888,10.5700455
11.7094738,-6.27848053
11.7280596,10.8737183
11.7466454,11.0266418
11.7652312,-13.8197174
11.783817,2.3346405
11.8024028,13.4897308
11.8209886,5.6455307
11.8395744,7.80206299
11.8581602,13.9593124
11.876746,-8.88272095
11.8953318,-7.72402954
11.9139176,5.43538666
11.9325034,4.59552002
11.9510892,2.75637817
11.969675,-10.0820465
11.9882608,2.0802536
12.0068466,4.24327087
12.0254324,3.40701294
12.0440182,16.5714798
12.062604,10.7366638
12.0811898,15.9025726
12.0997756,14.0691986
12.1183614,1.23654938
12.1369472,2.40461731
12.155533,6.57341003
12.1741188,9.74292755
12.1927046,-0.0868377686
12.2112904,-1.91588593
12.2298762,-16.7442017
12.248462,11.4281921
12.2670478,18.6013184
12.2856336,-8.22483826
12.3042194,9.94972229
12.3228052,19.1250076
12.341391,13.3010178
12.3599768,18.4777451
12.3785626,10.6551971
12.3971484,2.83336639
12.4157342,-11.9877396
12.43432,-1.83960724
12.4529058,-5.69075775
12.4714916,6.45881653
12.4900774,8.6091156
12.5086632,-28.2398682
12.527249,1.91186523
12.5458348,-10.9356689
12.5644206,12.217514
12.5830064,24.3714142
12.6015922,7.52603912
12.620178,3.68138123
12.6387638,11.8374481
12.6573496,21.9942398
12.6759354,7.15174866
12.6945212,25.3099823
12.713107,6.46893311
12.7316928,-9.3713913
12.7502786,-1.21099091
12.7688644,-10.0498734
12.7874502,-0.894592285
12.806036,12.2614136
12.8246218,-4.5818634
12.8432076,2.57558441
12.8617934,4.73374939
12.8803792,-8.10736084
12.898965,13.0522461
12.9175508,-13.7874222
12.9361366,-7.62636566
12.9547224,10.535408
12.9733082,-6.30209351
12.991894,0.861122131
13.0104798,0.025062561
13.0290656,3.18972015
13.0476514,5.35510254
13.0662372,17.5212097
13.084823,1.68803406
13.1034088,-5.14442444
13.1219946,0.0238494873
13.1405804,23.1928329
13.1591662,6.36254883
13.177752,-2.46701813
13.1963378,5.70413208
13.2149236,5.87600708
13.2335094,12.0486069
13.2520952,10.2219238
13.270681,26.3959656
13.2892668,21.5707245
13.3078526,-5.25379181
13.3264384,4.92240906
13.3450242,13.0993423
13.36361,7.27698517
13.3821958,-7.54464722
13.4007816,2.63444519
13.4193674,-3.18574524
13.4379532,7.99478912
13.456539,17.1760483
13.4751248,-22.6419754
13.4937106,2.54071808
13.5122964,5.72413635
13.5308822,9.90827942
13.549468,6.09313965
13.5680538,8.27872467
13.5866396,19.4650269
13.6052254,5.65205383
13.6238112,11.8398056
13.642397,19.0282745
13.6609828,4.21746826
13.6795686,1.40737915
13.6981544,0.598014832
13.7167402,-0.210632324
13.735326,23.9814453
13.7539118,16.1742477
13.7724976,11.3677673
13.7910834,13.5620041
13.8096692,18.7569656
13.828255,-7.04734802
13.8468408,27.1490631
13.8654266,6.34618378
13.8840124,-2.45596313
13.9025982,0.742607117
13.921184,-6.05809784
13.9397698,8.14191437
13.9583556,3.34264374
13.9769414,1.54410553
13.9955272,19.7462845
14.014113,3.9491806
14.0326988,-11.8471985
14.0512846,3.35714722
14.0698704,2.56221008
14.0884562,9.76799011
14.107042,8.97450256
14.1256278,9.18172455
14.1442136,13.389679
14.1627994,15.5983505
14.1813852,5.80773926
14.199971,-12.9821472
14.2185568,16.2286911
14.2371426,4.44024658
14.2557284,10.6525269
14.2743142,5.86552429
14.2929,3.07924652
14.3114858,15.2936935
14.3300716,14.5088577
14.3486574,2.7247467
14.3672432,10.9413528
14.385829,-9.84131622
14.4044148,-2.62326813
14.4230006,3.59550476
14.4415864,6.81499481
14.4601722,8.03520966
14.478758,1.25614929
14.4973438,-1.52219391
14.5159296,2.70018768
14.5345154,1.92328644
14.5531012,30.14711
14.571687,7.3716507
14.5902728,21.5969162
14.6088586,-1.17709351
14.6274444,0.0496139526
14.6460302,11.2770462
14.664616,-3.49480438
14.6832018,12.7340698
14.7017876,25.9636612
14.7203734,2.19397736
14.7389592,4.42501831
14.757545,32.6567764
14.7761308,17.8892517
14.7947166,12.1224594
14.8133024,22.3563766
14.8318882,-10.4089737
14.850474,19.8263931
14.8690598,12.0624771
14.8876456,0.299285889
14.9062314,4.53681946
14.9248172,-7.22492981
14.943403,-10.9859543
14.9619888,8.00418854
14.9805746,-1.00495148
14.9991604,-2.0133667
15.0177462,8.97893524
15.036332,7.97196198
15.0549178,14.9657135
15.0735036,0.96018219
15.0920894,18.9553757
15.1106752,1.95128632
15.129261,9.94792175
15.1478468,12.9452744
15.1664326,-4.05664825
15.1850184,-8.0578537
15.2036042,1.94167328
15.22219,16.9419098
15.2407758,7.94287109
15.2593616,-4.05544281
15.2779474,26.9469681
15.2965332,0.950088501
15.315119,16.9539413
15.3337048,22.9585114
15.3522906,14.9638062
15.3708764,-7.03018188
15.3894622,13.9765549
15.408048,15.9840088
15.4266338,14.9921875
15.4452196,-2.99891663
15.4638054,-6.98929596
15.4823912,14.0210495
15.500977,7.03211212
15.5195628,7.04389954
15.5381486,5.05640411
15.5567344,3.06963348
15.5753202,12.08358
15.593906,8.09825134
15.6124918,30.1136475
15.6310776,0.129760742
15.6496634,15.1465912
15.6682492,0.164154053
15.686835,6.18242645
15.7054208,9.20143127
15.7240066,13.2211533
15.7425924,-0.758407593
15.7611782,18.2627563
15.779764,13.2846451
15.7983498,15.307251
15.8169356,11.3305817
15.8355214,-3.64537048
15.8541072,10.3794022
15.872693,8.4048996
15.8912788,17.4311142
15.9098646,11.458046
15.9284504,8.48571014
15.9470362,-15.4859161
15.965622,-7.51097107
15.9842078,0.464691162
16.0027936,-1.55892944
16.0213794,24.4181747
16.0399652,0.396003723
16.058551,28.3745575
16.0771368,9.3538208
16.0957226,24.3338165
16.1143084,25.3145294
16.1328942,-14.7040329
16.15148,9.27812195
16.1700658,15.260994
16.1886516,15.2445984
16.2072374,7.22891998
16.2258232,-3.78604126
16.244409,23.1997223
16.2629948,12.1862106
16.2815806,4.17341614
16.3001664,8.16134644
16.3187522,14.1499939
16.337338,0.13936615
16.3559238,-8.87054443
16.3745096,3.12026978
16.3930954,-8.88819122
16.4116812,-2.93618774
16.430267,18.0165329
16.4488528,5.96997833
16.4674386,0.92414856
16.4860244,5.87903595
16.5046102,-2.1653595
16.523196,18.7909775
16.5417818,24.748024
16.5603676,5.70580292
16.5789534,-9.33570099
16.5975392,20.6235123
16.616125,15.5834503
16.6347108,8.54411316
16.6532966,-5.49450684
16.6718824,-11.532402
16.6904682,7.43041992
16.709054,-1.60603333
16.7276398,5.35823059
16.7462256,5.3232193
16.7648114,3.2889328
16.7833972,15.2553635
16.801983,10.2225189
16.8205688,20.1903915
16.8391546,29.158989
16.8577404,40.1283035
16.8763262,-1.9016571
16.894912,14.0691071
16.9134978,-11.9594116
16.9320836,13.0127945
16.9506694,38.9857178
16.9692552,9.95936584
16.987841,22.9337311
17.0064268,18.9088211
17.0250126,5.8846283
17.0435984,-0.138832092
17.0621842,10.8384171
17.08077,14.816391
17.0993558,0.795089722
17.1179416,2.77450562
17.1365274,2.7546463
17.1551132,14.7355118
17.173699,52.7170944
17.1922848,21.6994019
17.2108706,2.68242645
17.2294564,16.6661682
17.2480422,6.6506424
17.266628,0.63583374
17.2852138,-2.37825775
17.3037996,16.6083755
17.3223854,9.59573364
17.3409712,-17.4161911
17.359557,10.5726013
17.3781428,21.5621262
17.3967286,9.55236816
17.4153144,27.5433273
17.4339002,11.5350113
17.452486,22.52742
17.4710718,25.520546
17.4896576,23.514389
17.5082434,25.5089645
17.5268292,16.5042496
17.545415,17.500267
17.5640008,7.49700165
17.5825866,-0.50554657
17.6011724,10.49263
17.6197582,14.4915314
17.638344,7.4911499
17.6569298,1.49149323
17.6755156,-7.50744629
17.6941014,-5.50566101
17.7126872,-0.50315094
17.731273,-0.499923706
17.7498588,5.50402069
17.7684446,-5.49131012
17.7870304,16.5140839
17.8056162,14.520195
17.824202,-7.47296906
17.8427878,-10.4654083
17.8613736,21.5428696
17.8799594,9.55186462
17.8985452,4.56158447
17.917131,9.57202911
17.9357168,-4.41680908
17.9543026,1.59507751
17.9728884,7.6076889
17.9914742,5.62101746
18.01006,11.6350632
18.0286458,15.6498337
18.0472316,12.665329
18.0658174,9.68154144
18.0844032,9.6984787
18.102989,8.71613312
18.1215748,10.7345123
18.1401606,10.7536163
18.1587464,10.7734375
18.1773322,-20.2060165
18.195918,2.81524658
18.2145038,21.8372269
18.2330896,15.8599396
18.2516754,21.8833694
18.2702612,14.9075165
18.288847,-16.0676117
18.3074328,9.95798492
18.3260186,14.9842987
18.3446044,-3.98866272
18.3631902,-8.96090698
18.381776,21.0675735
18.4003618,5.09677124
18.4189476,2.12669373
18.4375334,-3.842659
18.4561192,-2.81129456
18.474705,-3.77920532
18.4932908,4.25360107
18.5118766,12.2871323
18.5304624,2.32138062
18.5490482,0.35635376
18.567634,5.3920517
18.5862198,0.428466797
18.6048056,34.4656067
18.6233914,22.5034637
18.6419772,18.5420456
18.660563,-0.418655396
18.6791488,10.6213684
18.6977346,-0.337890625
18.7163204,6.70357513
18.7349062,15.7457657
18.753492,13.7886734
18.7720778,21.8323059
18.7906636,18.8766556
18.8092494,5.92173004
18.8278352,2.9675293
18.846421,-12.9859543
18.8650068,-2.00182343
18.8835926,18.9830246
18.9021784,13.9685898
18.9207642,23.9548874
18.93935,17.9418945
18.9579358,32.9296341
18.9765216,23.9180908
18.9951074,2.90726471
19.0136932,-6.10283661
19.032279,5.88778687
19.0508648,10.8791275
19.0694506,13.8711929
19.0880364,-1.13602448
19.1066222,7.85748291
19.125208,10.8517075
19.1437938,-7.1533432
19.1623796,12.8423309
19.1809654,15.8387222
19.1995512,9.83583832
19.218137,-1.16632843
19.2367228,21.8322296
19.2553086,12.8315125
19.2738944,19.8315125
19.2924802,-7.16777039
19.311066,16.8336716
19.3296518,15.8358383
19.3482376,14.8387222
19.3668234,2.84233093
19.3854092,2.8466568
19.403995,-8.14829254
19.4225808,6.85748291
19.4411666,1.86397552
19.4597524,-6.12880707
19.4783382,6.8791275
19.496924,12.8877869
19.5155098,17.8971634
19.5340956,6.90726471
19.5526814,2.91808319
19.5712672,-3.07036591
19.589853,3.94189453
19.6084388,4.95487976
19.6270246,27.9685898
19.6456104,-9.01698303
19.6641962,-5.00183105
19.682782,-19.9859543
19.7013678,6.01385498
19.7199536,-5.98561096
19.7385394,12.0156479
19.7571252,14.0176239
19.775711,12.0203171
19.7942968,15.023735
19.8128826,12.0278778
19.8314684,28.0327377
19.8500542,2.03832245
19.86864,0.0446243286
19.8872258,8.051651
19.9058116,5.05940247
19.9243974,5.06787109
19.9429832,13.0770645
19.961569,2.0869751
19.9801548,9.09761047
19.9987406,-5.89103699
20.0173264,15.1210403
20.0359122,9.13383484
20.054498,21.1473541
20.0730838,9.16159821
20.0916696,11.1765594
20.1102554,-3.80775452
20.1288412,23.2086487
20.147427,27.2257767
20.1660128,2.24362946
20.1845986,15.2621994
20.2031844,14.2814865
20.2217702,13.3014984
20.240356,10.3222351
20.2589418,2.34368896
20.2775276,-1.63413239
20.2961134,8.38877106
20.3146992,-0.587608337
20.333285,0.436729431
20.3518708,-6.53820801
20.3704566,-3.51242065
20.3890424,-15.4859161
20.4076282,4.51887512
20.426214,-3.47560883
20.4447998,14.5306244
20.4633856,9.5375824
20.4819714,8.54525757
20.5005572,12.5536575
20.519143,6.56277466
20.5377288,-13.4273758
20.5563146,0.583183289
20.5749004,22.5944672
20.5934862,22.6064758
20.612072,-1.38079834
20.6306578,20.6326523
20.6492436,27.6468277
20.6678294,9.66172028
20.6864152,22.67733
20.705001,17.6936646
20.7235868,7.71072388
20.7421726,-0.271499634
20.7607584,10.7470016
20.7793442,4.76622772
20.79793,16.786171
20.8165158,9.80683136
20.8351016,2.82821655
20.8536874,11.8503265
20.8722732,28.8731537
20.890859,6.89670563
20.9094448,-7.07901764
20.9280306,-2.05403137
20.9466164,27.9716873
20.9652022,17.9981232
20.983788,3.02528381
21.0023738,4.05316162
21.0209596,4.08176422
21.0395454,9.11108398
21.0581312,12.1411285
21.076717,4.17189026
21.0953028,16.2033844
21.1138886,-2.76441193
21.1324744,-4.73148346
21.1510602,-5.6978302
21.169646,8.33654022
21.1882318,6.37163544
21.2068176,0.407455444
21.2254034,15.4439926
21.2439892,27.4812469
21.262575,15.5192261
21.2811608,7.55792999
21.2997466,-7.40264893
21.3183324,7.63749695
21.3369182,3.67836761
21.355504,3.71995544
21.3740898,12.7622604
21.3926756,9.80529022
21.4112614,14.8490448
21.4298472,16.8935165
21.448433,22.9387131
21.4670188,5.98462677
21.4856046,4.03126526
21.5041904,10.0786285
21.5227762,20.126709
21.541362,-6.82448578
21.5599478,-8.77496338
21.5785336,1.13739014
21.5971194,16.0504608
21.6157052,6.96426392
21.634291,24.8787766
21.6528768,4.79401398
21.6714626,1.7099762
21.6900484,25.6266632
21.7086342,36.5440598
21.72722,9.46218872
21.7458058,16.3810349
21.7643916,21.3006058
21.7829774,12.2208939
21.8015632,15.1419067
21.820149,14.0636368
21.8387348,1.98609161
21.8573206,5.90926361
21.8759064,0.8331604
21.8944922,6.75778198
21.913078,25.6831207
21.9316638,7.60918427
21.9502496,17.535965
21.9688354,11.4634705
21.9874212,-3.60830688
22.006007,23.3206406
22.0245928,14.2503128
22.0431786,2.18070221
22.0617644,26.1118164
22.0803502,12.0436478
22.098936,6.97620392
22.1175218,19.9094772
22.1361076,-15.1565247
22.1546934,15.7781982
22.1732792,3.71363831
22.191865,4.64979553
22.2104508,25.5866852
22.2290366,17.5242844
22.2476224,28.462616
22.2662082,3.40166473
22.284794,9.34143066
22.3033798,23.2819214
22.3219656,2.2231369
22.3405514,-8.83493042
22.3591372,7.10772705
22.377723,4.05110168
22.3963088,15.9952011
22.4148946,15.9400177
22.4334804,27.8855591
22.4520662,10.8318253
22.470652,7.77880859
22.4892378,9.72651672
22.5078236,15.674942
22.5264094,-7.3759079
22.5449952,2.57395935
22.563581,-1.47544861
22.5821668,10.4758682
22.6007526,14.4279022
22.6193384,7.38066101
22.6379242,-9.66586304
22.65651,-1.71166229
22.6750958,11.2432556
22.6936816,0.198898315
22.7122674,13.1552658
22.7308532,11.1123505
22.749439,12.0701523
22.7680248,38.0286865
22.7866106,27.9879303
22.8051964,2.94790649
22.8237822,0.908599854
22.842368,12.8700104
22.8609538,-0.167854309
22.8795396,0.795005798
22.8981254,9.75858307
22.9167112,17.7228851
22.935297,7.68790436
22.9538828,16.6536484
22.9724686,15.6201096
22.9910544,-10.4127045
23.0096402,12.5552063
23.028226,-5.47616577
23.0468118,10.493187
23.0653976,12.4632568
23.0839834,12.4340515
23.1025692,0.405563354
23.121155,20.3778
23.1397408,13.3507614
23.1583266,0.324440002
23.1769124,13.2988434
23.1954982,11.2739639
23.214084,2.24980927
23.2326698,3.22637177
23.2512556,4.20365906
23.2698414,5.18167114
23.2884272,13.1604004
23.307013,-4.8601532
23.3255988,18.120018
23.3441846,-2.899086
23.3627704,9.08253479
23.3813562,-5.93513489
23.399942,5.04792786
23.4185278,6.03170776
23.4371136,7.01621246
23.4556994,-0.998565674
23.4742852,3.98738098
23.492871,-4.0259552
23.5114568,-10.0385666
23.5300426,23.9495392
23.5486284,17.9383698
23.5672142,15.9279251
23.5858,15.9181976
23.6043858,14.9091949
23.6229716,-9.09909058
23.6415574,15.8933487
23.6601432,14.8865051
23.678729,16.8803864
23.6973148,-4.12500763
23.7159006,9.87031555
23.7344864,17.8663559
23.7530722,0.863128662
23.771658,11.8606186
23.7902438,11.8588257
23.8088296,10.8577576
23.8274154,12.8574066
23.8460012,25.8577805
23.864587,3.85887909
23.8831728,-0.139305115
23.9017586,13.8632355
23.9203444,23.8664932
23.9389302,30.8704758
23.957516,12.8751831
23.9761018,31.8806076
23.9946876,35.8867493
24.0132734,15.8936234
24.0318592,30.901207
24.050445,58.909523
24.0690308,46.9185562
24.0876166,35.9283066
24.1062024,26.9387817
24.1247882,45.9499817
24.143374,43.9618988
24.1619598,39.9745331
24.1805456,21.9878998
24.1991314,17.0019836
24.2177172,31.0167847
24.236303,25.0323105
24.2548888,13.0485611
24.2734746,20.0655289
24.2920604,31.0832138
24.3106462,23.1016312
24.329232,37.1207581
24.3478178,12.1406174
24.3664036,15.1611938
24.3849894,33.1824875
24.4035752,25.2045059
24.422161,31.2272491
24.4407468,17.2507095
24.4593326,16.2748947
24.4779184,31.2997971
24.4965042,23.3254242
24.51509,23.3517761
24.5336758,14.3788452
24.5522616,35.4066315
24.5708474,30.4351425
24.5894332,3.46437836
24.608019,22.4943314
24.6266048,6.52500916
24.6451906,-1.44358826
24.6637764,6.58853149
24.6823622,31.6213684
24.700948,19.6549377
24.7195338,23.6892166
24.7381196,4.72422028
24.7567054,3.75994873
24.7752912,7.79640198
24.793877,2.83357239
24.8124628,-0.128540039
24.8310486,-3.08992767
24.8496344,10.9494095
24.8682202,9.98946381
24.886806,12.0302429
24.9053918,17.0717392
24.9239776,-6.88603973
24.9425634,23.1569061
24.9611492,1.20056915
24.979735,15.244957
24.9983208,-7.70993805
25.0169066,-4.66410828
25.0354924,7.38243866
25.0540782,25.4297104
25.072664,8.47769928
25.0912498,14.526413
25.1098356,-5.42414856
25.1284214,17.6260071
25.1470072,12.6768875
25.165593,14.7284851
25.1841788,18.7808075
25.2027646,1.83384705
25.2213504,-4.11238861
25.2399362,13.9421005
25.258522,6.99730682
25.2771078,5.05323792
25.2956936,8.10988617
25.3142794,10.1672592
25.3328652,4.22534943
25.351451,-1.71583557
25.3700368,12.3437042
25.3886226,12.4039612
25.4072084,9.46494293
25.4257942,19.5266418
25.44438,7.58906555
25.4629658,29.6522064
25.4815516,19.7160721
25.5001374,-1.21933746
25.5187232,-0.154029846
25.537309,4.91199493
25.5558948,8.97874451
25.5744806,1.04621887
25.5930664,-3.88558197
25.6116522,-6.81667328
25.630238,31.2529678
25.6488238,9.32332611
25.6674096,13.3944092
25.6859954,7.46620941
25.7045812,18.5387344
25.723167,-21.3880234
25.7417528,-5.3140564
25.7603386,16.7606277
25.7789244,12.8360367
25.7975102,1.91217041
25.816096,4.9890213
25.8346818,16.066597
25.8532676,-0.855110168
25.8718534,3.22390747
25.8904392,20.3036423
25.909025,2.38410187
25.9276108,2.46528625
25.9461966,14.5471878
25.9647824,22.6298065
25.9833682,11.7131577
26.001954,0.797218323
26.0205398,3.88201141
26.0391256,-5.03247833
26.0577114,6.05374908
26.0762972,7.14070129
26.094883,8.2283783
26.1134688,7.31677246
26.1320546,-11.5941086
26.1506404,-5.50427246
26.1692262,5.58628845
26.187812,8.67757416
26.2063978,-0.230422974
26.2249836,6.86229706
26.2435694,8.95574188
26.2621552,13.0499115
26.280741,10.1447983
26.2993268,0.240409851
26.3179126,-6.66325378
26.3364984,12.4337997
26.3550842,10.5315704
26.37367,3.63006592
26.3922558,4.72928619
26.4108416,6.82922363
26.4294274,3.92988586
26.4480132,-4.96872711
26.466599,1.13337708
26.4851848,-5.76380157
26.5037706,-8.66025543
26.5223564,-0.725852966
26.5409422,11.2092743
26.559528,15.1451263
26.5781138,3.08169556
26.5966996,15.0189819
26.6152854,13.9569931
26.6338712,2.89572906
26.652457,20.8351822
26.6710428,11.7753601
26.6896286,-0.283744812
26.7082144,-12.3421249
26.7268002,12.6002197
26.745386,15.5432816
26.7639718,19.4870682
26.7825576,5.43157196
26.8011434,0.376800537
26.8197292,-6.67725372
26.838315,10.2694168
26.8569008,5.21681213
26.8754866,29.1649246
26.8940724,19.1137543
26.9126582,7.06330872
26.931244,-3.98641205
26.9498298,15.9645844
26.9684156,4.91630554
26.9870014,2.86875153
27.0055872,3.82191467
27.024173,10.775795
27.0427588,3.73040771
27.0613446,3.68572998
27.0799304,12.6417847
27.0985162,6.59855652
27.117102,3.55604553
27.1356878,-14.4857407
27.1542736,-2.5591507
27.1728594,4.36815643
27.1914452,-7.70380402
27.210031,3.22494507
27.2286168,11.1544189
27.2472026,-2.91538239
27.2657884,9.01554108
27.2843742,4.9471817
27.30296,14.8795395
27.3215458,7.81262207
27.3401316,5.74642944
27.3587174,-2.31904602
27.3773032,1.61620331
27.395889,9.5521698
27.4144748,1.48886108
27.4330606,11.4262695
27.4516464,-10.6355972
27.4702322,14.3032608
27.488818,8.242836
27.5074038,8.18313599
27.5259896,21.1241531
27.5445754,17.0658951
27.5631612,21.0083618
27.581747,20.9515457
27.6003328,20.8954468
27.6189186,20.8400726
27.6375044,31.7854233
27.6560902,49.7314911
27.674676,39.6782837
27.6932618,52.6257935
27.7118476,48.574028
27.7304334,36.5229874
27.7490192,69.4726639
27.767605,48.4230652
27.7861908,63.3741837
27.8047766,62.3260269
27.8233624,72.2785873
27.8419482,104.231873
27.860534,99.1858749
27.8791198,92.1406021
27.8977056,65.0960541
27.9162914,81.0522232
27.9348772,101.009117
27.953463,113.966728
27.9720488,114.925064
27.9906346,71.8841248
28.0092204,85.8439026
28.0278062,75.8043976
28.046392,92.765625
28.0649778,95.727562
28.0835636,94.6902313
28.1021494,102.65361
28.1207352,122.617722
28.139321,136.58255
28.1579068,160.548096
28.1764926,152.514374
28.1950784,163.481354
28.2136642,168.449066
28.23225,195.417511
28.2508358,173.386673
28.2694216,173.356552
28.2880074,166.327148
28.3065932,196.298462
28.325179,154.270508
28.3437648,147.243286
28.3623506,100.216766
28.3809364,100.190971
28.3995222,105.165901
28.418108,114.141556
28.4366938,105.117928
28.4552796,107.095016
28.4738654,105.072838
28.4924512,107.051369
28.511037,119.030632
28.5296228,95.0106125
28.5482086,89.9913101
28.5667944,111.972733
28.5853802,82.9548798
28.603966,88.9377441
28.6225518,102.921326
28.6411376,128.90564
28.6597234,115.890671
28.6783092,119.876419
28.696895,166.862885
28.7154808,100.85009
28.7340666,145.838013
28.7526524,150.82663
28.7712382,141.81601
28.789824,141.806091
28.8084098,175.796875
28.8269956,189.788406
28.8455814,157.78064
28.8641672,185.773621
28.882753,157.767303
28.9013388,153.761719
28.9199246,191.756836
28.9385104,158.752686
28.9570962,185.749268
28.975682,132.746567
28.9942678,157.744583
29.0128536,177.743317
29.0314394,132.742783
29.0500252,149.742966
29.068611,144.743866
29.0871968,141.745483
29.1057826,140.747833
29.1243684,155.7509
29.1429542,146.7547
29.16154,161.759201
29.1801258,142.764435
29.1987116,150.770386
29.2172974,161.777069
29.2358832,205.784454
29.254469,198.792572
29.2730548,213.801422
29.2916406,200.810974
29.3102264,217.821259
29.3288122,212.83226
29.347398,212.843994
29.3659838,208.85643
29.3845696,188.869598
29.4031554,194.883484
29.4217412,142.898102
29.440327,149.913422
29.4589128,136.929474
29.4774986,119.946259
29.4960844,138.96376
29.5146702,98.9819794
29.533256,106.000916
29.5518418,122.020576
29.5704276,80.0409622
29.5890134,88.0620651
29.6075992,54.0838928
29.626185,69.1064377
29.6447708,67.1297073
29.6633566,81.1536942
29.6819424,57.1784058
29.7005282,69.2038422
29.719114,48.2299957
29.7376998,45.2568741
29.7562856,66.2844696
29.7748714,45.3127899
29.7934572,26.3418274
29.812043,29.3715897
29.8306288,39.4020767
29.8492146,46.4332809
29.8678004,25.46521
29.8863862,37.4978561
29.904972,47.5312271
29.9235578,29.5653152
29.9421436,38.6001282
29.9607294,29.6356659
29.9793152,44.6719208
29.997901,18.7088928
30.0164868,28.7465973
30.0350726,40.7850113
30.0536584,27.8241577
30.0722442,31.8640213
30.09083,52.9046021
30.1094158,46.9459076
30.1280016,49.9879379
30.1465874,59.0306854
30.1651732,63.0741577
30.183759,67.1183472
30.2023448,59.1632614
30.2209306,83.2088928
30.2395164,57.255249
30.2581022,76.30233
30.276688,66.3501282
30.2952738,54.3986511
30.3138596,44.4478912
30.3324454,70.4978561
30.3510312,44.5485382
30.369617,48.5999451
30.3882028,35.6520767
30.4067886,15.7049255
30.4253744,29.7584991
30.4439602,44.8127899
30.462546,31.8678055
30.4811318,23.9235382
30.4997176,11.9799957
30.5183034,10.037178
30.5368892,18.0950775
30.555475,18.1536942
30.5740608,27.2130432
30.5926466,2.27310181
30.6112324,17.3338928
30.6298182,19.395401
30.648404,2.45762634
30.6669898,11.5205765
30.6855756,-7.4157486
30.7041614,16.6486435
30.7227472,30.7137604
30.741333,22.7795944
30.7599188,19.8461533
30.7785046,-2.08657074
30.7970904,-0.0185699463
30.8156762,15.0501556
30.834262,-11.8804016
30.8528478,11.1897659
30.8714336,0.260650635
30.8900194,-2.66773987
30.9086052,10.4045868
30.927191,23.4776382
30.9457768,13.5514145
30.9643626,-5.3740921
30.9829484,11.7011261
31.0015342,1.77706146
31.02012,4.85372162
31.0387058,-6.06890106
31.0572916,-3.99079895
31.0758774,-1.91197205
31.0944632,17.167572
31.113049,6.24783325
31.1316348,-0.671173096
31.1502206,19.4105301
31.1688064,18.4929657
31.1873922,35.5761185
31.205978,31.6599884
31.2245638,26.7445831
31.2431496,37.8299026
31.2617354,29.9159393
31.2803212,39.0027008
31.298907,54.0901794
31.3174928,62.1783829
31.3360786,81.2673035
31.3546644,98.3569489
31.3732502,84.447319
31.391836,95.5384064
31.4104218,115.630219
31.4290076,114.722748
31.4475934,134.81601
31.4661792,101.909973
31.484765,94.0046692
31.5033508,118.10009
31.5219366,103.196228
31.5405224,80.2930908
31.5591082,56.3906708
31.577694,49.4889755
31.5962798,57.5879974
31.6148656,59.6877441
31.6334514,64.788208
31.6520372,27.8894043
31.670623,26.9913101
31.6892088,44.0939407
31.7077946,40.1972961
31.7263804,21.3013763
31.7449662,21.4061661
31.763552,24.5116882
31.7821378,24.6179276
31.8007236,29.7248917
31.8193094,30.8325729
31.8378952,8.94097137
31.856481,2.05010223
31.8750668,5.15995026
31.8936526,-2.72948456
31.9122384,12.3818054
31.9308242,24.4938202
31.94941,22.6065521
31.9679958,-1.27999115
31.9865816,5.83418274
32.0051674,17.9490814
32.0237532,-1.93530273
32.042339,-11.8189621
32.0609248,9.29810333
32.0795106,11.4158859
32.0980964,1.53438568
32.1166822,17.6536179
32.135268,18.7735596
32.1538538,19.8942337
32.1724396,45.015625
32.1910254,14.1377335
32.2096112,20.2605667
32.228197,13.3841248
32.2467828,5.50839996
32.2653686,-8.36660004
32.2839544,-9.40525055
32.3025402,11.5568161
32.321126,-2.48039246
32.3397118,20.4831238
32.3582976,-0.552642822
32.3768834,-5.58769226
32.3954692,-1.62201691
32.414055,-0.65561676
32.4326408,12.3115082
32.4512266,3.27934265
32.4698124,28.2479095
32.4883982,-0.782806396
32.506984,10.1872025
32.5255698,10.1579285
32.5441556,4.12937164
32.5627414,7.10154724
32.5813272,-0.925559998
32.599913,13.0480499
32.6184988,19.0223846
32.6370846,25.9974442
32.6556704,5.97322083
32.6742562,10.9497147
32.692842,9.92694092
32.7114278,8.90488434
32.7300136,4.88354492
32.7485994,-8.1370697
32.7671852,5.84303284
32.785771,15.8238678
32.8043568,-0.194587708
32.8229426,5.78768158
32.8415284,9.77067566
32.8601142,-1.24560547
32.8787,13.7388306
32.8972858,14.7239838
32.9158716,12.7098618
32.9344574,27.6964645
32.9530432,0.683784485
32.971629,-0.328170776
32.9902148,9.66059113
33.0088006,14.6500778
33.0273864,-7.35971832
33.0459722,20.6312103
33.064558,7.62286377
33.0831438,18.6152344
33.1017296,10.6083298
33.1203154,8.60214233
33.1389012,25.5966797
33.157487,38.5919418
33.1760728,20.5879135
33.1946586,24.5846176
33.2132444,16.5820389
33.2318302,41.5801849
33.250416,27.5790482
33.2690018,20.5786362
33.2875876,15.5789413
33.3061734,26.5799713
33.3247592,36.5817261
33.343345,34.584198
33.3619308,26.5873947
33.3805166,58.5913086
33.3991024,29.5959473
33.4176882,45.6013031
33.436274,43.6073837
33.4548598,40.6141815
33.4734456,60.6217041
33.4920314,31.6299515
33.5106172,52.638916
33.529203,36.6486053
33.5477888,64.6590118
33.5663746,42.6701431
33.5849604,50.6819992
33.6035462,69.6945724
33.622132,75.7078629
33.6407178,80.7218857
33.6593036,72.736618
33.6778894,69.7520828
33.6964752,102.768257
33.715061,116.785164
33.7336468,104.802788
33.7522326,122.821129
33.7708184,128.84021
33.7894042,163.859985
33.80799,164.880493
33.8265758,175.901733
33.8451616,211.923676
33.8637474,228.94635
33.8823332,217.969757
33.900919,241.993866
33.9195048,266.018707
33.9380906,286.04425
33.9566764,297.070557
33.9752622,325.097534
33.993848,367.125275
34.0124338,409.153717
34.0310196,389.182892
34.0496054,388.212769
34.0681912,406.243408
34.086777,419.274719
34.1053628,376.306763
34.1239486,360.339539
34.1425344,366.373047
34.1611202,320.407257
34.179706,349.4422
34.1982918,347.477875
34.2168776,338.514252
34.2354634,302.551361
34.2540492,306.589172
34.272635,313.627716
34.2912208,295.666992
34.3098066,248.706985
34.3283924,219.747696
34.3469782,257.789124
34.365564,223.831284
34.3841498,207.874161
34.4027356,172.917755
34.4213214,203.962067
34.4399072,188.007111
34.458493,167.052887
34.4770788,163.099365
34.4956646,146.146561
34.5142504,191.194489
34.5328362,164.243134
34.551422,152.292511
34.5700078,137.34259
34.5885936,152.393402
34.6071794,142.444946
34.6257652,139.497192
34.644351,158.550171
34.6629368,146.603882
34.6815226,104.658295
34.7001084,127.713432
34.7186942,105.769295
34.73728,127.825882
34.7558658,137.883179
34.7744516,109.941216
34.7930374,122.999962
34.8116232,107.059433
34.830209,122.119621
34.8487948,142.180542
34.8673806,143.242172
34.8859664,120.304527
34.9045522,134.367615
34.923138,107.431404
34.9417238,147.495926
34.9603096,125.561165
34.9788954,144.627136
34.9974812,123.693817
35.016067,114.761223
35.0346528,128.829346
35.0532386,146.898193
35.0718244,126.967766
35.0904102,130.038055
35.108996,152.10907
35.1275818,169.180817
35.1461676,146.253265
35.1647534,148.326447
35.1833392,160.400345
35.201925,159.474976
35.2205108,164.550308
35.2390966,162.626373
35.2576824,184.703156
35.2762682,180.78067
35.294854,180.858887
35.3134398,209.937836
35.3320256,189.017517
35.3506114,178.0979
35.3691972,178.179016
35.387783,153.260864
35.4063688,168.343414
35.4249546,128.426697
35.4435404,128.510696
35.4621262,127.595421
35.480712,109.680862
35.4992978,96.7670288
35.5178836,80.8539124
35.5364694,89.9415207
35.5550552,78.0298538
35.573641,73.1189041
35.5922268,60.2086716
35.6108126,49.2991714
35.6293984,50.3903885
35.6479842,54.4823227
35.66657,48.5749817
35.6851558,43.6683578
35.7037416,35.7624588
35.7223274,48.8572845
35.7409132,37.9528275
35.759499,54.0490952
35.7780848,43.14608
35.7966706,30.2437897
35.8152564,37.3422241
35.8338422,44.4413757
35.852428,13.5412445
35.8710138,46.6418381
35.8895996,14.7431564
35.9081854,19.845192
35.9267712,29.9479523
35.945357,21.0514374
35.9639428,22.1556396
35.9825286,7.26055908
36.0011144,21.3662033
36.0197002,4.47257233
36.038286,33.5796585
36.0568718,15.6874695
36.0754576,24.7959976
36.0940434,25.9052505
36.1126292,11.0152283
36.131215,13.1259232
36.1498008,15.2373428
36.1683866,10.3494797
36.1869724,13.4623413
36.2055582,-1.4240799
36.224144,3.69022369
36.2427298,-0.194755554
36.2613156,3.92098999
36.2799014,5.03746033
36.2984872,5.15464783
36.317073,24.2725601
36.3356588,6.39118958
36.3542446,4.51054382
36.3728304,17.6306229
36.3914162,-9.24858093
36.410002,16.8729324
36.4285878,7.99517059
36.4471736,19.1181335
36.4657594,-5.75818634
36.4843452,-6.63378143
36.502931,14.4913483
36.5215168,6.61719513
36.5401026,12.7437592
36.5586884,0.871047974
36.5772742,7.99906158
36.59586,-1.87220764
36.6144458,-4.74275208
36.6330316,13.3874207
36.6516174,-4.48168182
36.6702032,13.6499405
36.688789,-6.21772003
36.7073748,1.91534424
36.7259606,-1.95087433
36.7445464,0.183631897
36.7631322,-7.68114471
36.781718,0.421882629
36.8003038,-3.47436523
36.8188896,-2.36988831
36.8374754,-0.264694214
36.8560612,2.84122467
36.874647,0.947860718
36.8932328,-5.94477844
36.9118186,13.1632996
36.9304044,-1.72789764
36.9489902,-0.618370056
36.967576,7.49187469
36.9861618,0.602836609
37.0047476,11.7145309
37.0233334,3.82693481
37.0419192,1.94007111
37.060505,-1.94607544
37.0790908,6.16849518
37.0976766,1.28379059
37.1162624,8.39981079
37.1348482,-8.48345184
37.153434,-7.40561676
37.1720198,2.67294312
37.1906056,18.7522278
37.2091914,11.8322296
37.2277772,-5.08704376
37.246363,7.99440002
37.2649488,-0.923431396
37.2835346,-5.84054184
37.3021204,0.243068695
37.3207062,3.32740021
37.339292,-7.5875473
37.3578778,17.4982262
37.3764636,-2.41527557
37.3950494,3.67194366
37.4136352,4.75988007
37.432221,1.84854126
37.4508068,1.93792343
37.4693926,-2.97197342
37.4879784,-2.88114548
37.5065642,-4.78960037
37.52515,8.30266953
37.5437358,16.3956566
37.5623216,-5.51063156
37.5809074,-7.41619873
37.5994932,-6.3910675
37.618079,0.634780884
37.6366648,13.6613541
37.6552506,2.68864822
37.6738364,-6.28333664
37.6924222,9.74539948
37.711008,6.77486038
37.7295938,12.8050385
37.7481796,-1.16405869
37.7667654,5.86756134
37.7853512,8.89990616
37.803937,-2.06702805
37.8225228,10.9667587
37.8411086,3.00127029
37.8596944,-10.963501
37.8782802,5.07244873
37.896866,15.1091232
37.9154518,14.1465187
37.9340376,15.1846352
37.9526234,-0.776527405
37.9712092,3.26303101
37.989795,-2.69668961
38.0083808,-1.65568542
38.0269666,2.38603973
38.0455524,4.42848206
38.0641382,-3.52835083
38.082724,-0.484462738
38.1013098,9.56014633
38.1198956,-2.39452362
38.1384814,-7.34846878
38.1570672,-0.371692657
38.175653,7.60580826
38.1942388,-10.4159698
38.2128246,-5.43703079
38.2314104,-4.45736694
38.2499962,-4.47698212
38.268582,2.5041275
38.2871678,6.48595428
38.3057536,-6.53149796
38.3243394,6.4517746
38.3429252,-5.56423187
38.361511,-7.57951736
38.3800968,10.4059181
38.3986826,-3.60792542
38.4172684,5.37895203
38.4358542,4.36655045
38.45444,10.3548737
38.4730258,14.343914
38.4916116,4.3336792
38.5101974,-0.675834656
38.5287832,-4.68462753
38.547369,1.30730057
38.5659548,5.29995346
38.5845406,3.29332352
38.6031264,3.28741837
38.6217122,-5.71776581
38.640298,4.27776718
38.6588838,14.274025
38.6774696,9.27100754
38.6960554,8.26870728
38.7146412,-7.73287201
38.733227,-1.7337265
38.7518128,1.26613617
38.7703986,8.26672363
38.7889844,1.26803207
38.8075702,-14.7299385
38.826156,7.27281189
38.8447418,25.2762871
38.8633276,1.28047943
38.8819134,-4.71460342
38.9004992,0.291030884
38.919085,9.29738998
38.9376708,14.3044701
38.9562566,7.31227112
38.9748424,5.32079697
38.9934282,14.33004
39.012014,-4.65999222
39.0305998,2.35069275
39.0491856,-4.63789749
39.0677714,10.3742332
39.0863572,11.387085
39.104943,-5.59934235
39.1235288,2.41495132
39.1421146,3.42996979
39.1607004,6.44570923
39.1792862,-3.53783417
39.197872,-2.52065277
39.2164578,10.4972496
39.2350436,10.515873
39.2536294,5.53521729
39.2722152,11.5552864
39.290801,20.5760727
39.3093868,3.59758377
39.3279726,22.6198158
39.3465584,9.64276886
39.3651442,20.6664429
39.38373,17.6908379
39.4023158,32.7159538
39.4209016,9.74179459
39.4394874,20.7683525
39.4580732,21.7956352
39.476659,1.82363892
39.4952448,4.85236359
39.5138306,12.8818092
39.5324164,10.9119759
39.5510022,3.94286728
39.569588,13.9744759
39.5881738,-11.9931908
39.6067596,8.03986359
39.6253454,8.0736351
39.6439312,-3.89186478
39.662517,3.14335251
39.6811028,-0.820709229
39.6996886,3.21595001
39.7182744,5.25333405
39.7368602,18.2914391
39.755446,3.33026505
39.7740318,7.36981201
39.7926176,3.41007996
39.8112034,-7.54893112
39.8297892,20.4927788
39.848375,7.53521347
39.8669608,7.57836914
39.8855466,4.62224197
39.9041324,10.6668396
39.9227182,7.7121582
39.941304,15.7581978
39.9598898,17.8049622
39.9784756,13.8524437
39.9970614,6.90065002
40.0156472,3.94957352
40.034233,9.9992218
40.0528188,24.0495911
40.0714046,14.1006813
40.0899904,10.1524963
40.1085762,6.20502853
40.127162,13.2582855
40.1457478,19.3122597
40.1643336,10.3669586
40.1829194,19.4223785
40.2015052,41.4785194
40.220091,19.5353813
40.2386768,28.5929642
40.2572626,17.6512718
40.2758484,23.7102966
40.2944342,14.7700462
40.31302,12.8305168
40.3316058,-0.108291626
40.3501916,22.9536209
40.3687774,30.0162544
40.3873632,4.07961273
40.405949,44.1436882
40.4245348,12.2084885
40.4431206,20.2740097
40.4617064,21.3402519
40.4802922,20.4072151
40.498878,9.47489929
40.5174638,30.5433044
40.5360496,11.6124344
40.5546354,12.6822815
40.5732212,17.7528534
40.591807,33.8241463
40.6103928,22.8961601
40.6289786,37.968895
40.6475644,18.0423508
40.6661502,34.1165276
40.684736,26.1914291
40.7033218,35.2670517
40.7219076,19.3433914
40.7404934,13.4204559
40.7590792,6.49824142
40.777665,12.5767479
40.7962508,16.6559792
40.8148366,23.7359276
40.8334224,16.8166008
40.8520082,29.8979912
40.870594,7.98010635
40.8891798,17.0629425
40.9077656,16.1464996
40.9263514,17.2307816
40.9449372,18.3157806
40.963523,21.4015007
40.9821088,6.48794556
41.0006946,8.57511139
41.0192804,7.6629982
41.0378662,20.751606
41.056452,0.840934753
41.0750378,13.9309845
41.0936236,10.021759
41.1122094,17.1132507
41.1307952,6.20546722
41.149381,15.2984047
41.1679668,11.3920631
41.1865526,11.4864426
41.2051384,4.58154297
41.2237242,3.67736816
41.24231,-2.22608948
41.2608958,15.8711777
41.2794816,23.969162
41.2980674,9.06787109
41.3166532,5.16730118
41.335239,10.2674561
41.3538248,2.36832809
41.3724106,13.4699211
41.3909964,4.57223892
41.4095822,23.6752777
41.428168,11.7790337
41.4467538,3.8835144
41.4653396,6.98871613
41.4839254,3.09464264
41.5025112,4.20128632
41.521097,22.3086548
41.5396828,19.4167404
41.5582686,10.5255508
41.5768544,14.6350822
41.5954402,3.74533463
41.614026,7.85630798
41.6326118,8.96800232
41.6511976,3.08042145
41.6697834,-1.80644226
41.6883692,3.30741882
41.706955,11.4220009
41.7255408,0.537303925
41.7441266,16.6533279
41.7627124,0.770072937
41.7812982,1.88754272
41.799884,-0.994270325
41.8184698,9.12464142
41.8370556,12.2442703
41.8556414,4.36462402
41.8742272,18.4856987
41.892813,25.6074982
41.9113988,10.7300148
41.9299846,-1.14674759
41.9485704,0.977214813
41.9671562,4.10189819
41.985742,-1.77270126
42.0043278,-5.64657593
42.0229136,-2.51972961
42.0414994,5.60784149
42.0600852,-0.263870239
42.078671,9.86514282
42.0972568,14.994873
42.1158426,3.12532806
42.1344284,-11.7434959
42.1530142,13.388401
42.1716,-3.47898102
42.1901858,14.6543579
42.2087716,5.78842163
42.2273574,2.92320251
42.2459432,-2.94129181
42.264529,8.19493484
42.2831148,9.33188248
42.3017006,8.46955109
42.3202864,9.60794067
42.3388722,-5.25294876
42.357458,-6.1131134
42.3760438,2.02744293
42.3946296,-0.831283569
42.4132154,-2.68928528
42.4318012,2.45343399
42.450387,-6.40312576
42.4689728,-4.39590454
42.4875586,-0.387962341
42.5061444,-5.37929916
42.5247302,0.630084991
42.543316,5.64019394
42.5619018,13.6510201
42.5804876,8.66257095
42.5990734,-0.325157166
42.6176592,5.68783188
42.636245,-0.29845047
42.6548308,-2.28401566
42.6734166,-3.26885986
42.6920024,-5.25298309
42.7105882,-12.2363815
42.729174,9.78094101
42.7477598,-13.2010155
42.7663456,2.81774902
42.7849314,-1.1627655
42.8035172,0.857440948
42.822103,-3.12163162
42.8406888,8.9000206
42.8592746,-3.0776062
42.8778604,11.9454842
42.8964462,1.96929932
42.915032,6.99383545
42.9336178,5.01909256
42.9522036,8.04507446
42.9707894,5.07177353
42.9893752,7.09919739
43.007961,0.127338409
43.0265468,18.1562042
43.0451326,22.185791
43.0637184,8.21609879
43.0823042,-4.75286865
43.10089,12.2788811
43.1194758,-3.68864441
43.1380616,11.3445473
43.1566474,8.37846375
43.1752332,4.4131012
43.193819,2.44845963
43.2124048,5.48453903
43.2309906,2.52133942
43.2495764,-6.44113541
43.2681622,7.59710693
43.286748,8.63607407
43.3053338,5.67576218
43.3239196,2.71617126
43.3425054,-1.24269867
43.3610912,10.7991524
43.379677,12.8417282
43.3982628,-0.11497879
43.4168486,14.929039
43.4354344,15.9737778
43.4540202,5.01923752
43.472606,-0.934581757
43.4911918,-1.88768005
43.5097776,2.15994263
43.5283634,-1.7917099
43.5469492,10.2573547
43.565535,21.3071442
43.5841208,10.3576546
43.6027066,3.40888596
43.6212924,-1.53916168
43.6398782,18.5135117
43.658464,-0.433094025
43.6770498,4.62102509
43.6956356,7.67586517
43.7142214,6.73142242
43.7328072,0.787704468
43.751393,12.8447075
43.7699788,9.90243149
43.7885646,0.96088028
43.8071504,-6.97995377
43.8257362,0.0737571716
43.844322,12.1281891
43.8629078,2.18334198
43.8814936,12.2392159
43.9000794,14.2958107
43.9186652,4.35312653
43.937251,11.4111671
43.9558368,15.4699249
43.9744226,13.5294075
43.9930084,10.5896111
44.0115942,-13.3494644
44.03018,-4.28781891
44.0487658,-0.225448608
44.0673516,12.8376389
44.0859374,1.90145111
44.1045232,-1.03401947
44.123109,-2.96876526
44.1416948,6.09720993
44.1602806,16.1639061
44.1788664,11.2313232
44.1974522,-2.70053482
44.216038,13.3683243
44.2346238,0.437908173
44.2532096,6.50821304
44.2717954,9.57923889
44.2903812,6.65098572
44.308967,6.72345352
44.3275528,17.7966423
44.3461386,9.87055588
44.3647244,2.94518661
44.3833102,-6.97945786
44.401896,-2.0982132
44.4204818,9.78375626
44.4390676,2.66644287
44.4576534,8.54985428
44.4762392,5.43398666
44.494825,11.31884
44.5134108,22.2044144
44.5319966,13.0907097
44.5505824,11.9777298
44.5691682,-2.13453293
44.587754,3.75392914
44.6063398,0.643112183
44.6249256,8.5330162
44.6435114,2.4236412
44.6620972,12.3149872
44.680683,19.2070541
44.6992688,32.0998459
44.7178546,20.9933548
44.7364404,20.8875885
44.7550262,12.7825432
44.773612,6.67821884
44.7921978,17.5746155
44.8107836,19.4717331
44.8293694,14.3695755
44.8479552,15.2681351
44.866541,14.1674194
44.8851268,14.0674248
44.9037126,-2.03184891
44.9222984,4.86959839
44.9408842,5.77176666
44.95947,-2.32534409
44.9780558,3.57826996
44.9966416,-0.517398834
45.0152274,3.38765717
45.0338132,23.2934341
45.052399,3.1999321
45.0709848,15.107151
45.0895706,13.0150909
45.1081564,-6.07624435
45.1267422,2.83313751
45.145328,-0.256755829
45.1639138,15.6540718
45.1824996,9.56562042
45.2010854,-1.52210999
45.2196712,10.3908806
45.238257,-3.69540787
45.2568428,-2.78097153
45.2754286,9.13418198
45.2940144,14.0500603
45.3126002,3.96665955
45.331186,-0.116020203
45.3497718,18.802021
45.3683576,-4.27921677
45.3869434,7.64026642
45.4055292,14.5604744
45.424115,6.48140335
45.4427008,7.40304947
45.4612866,-11.6745796
45.4798724,3.24851227
45.4984582,-1.82767105
45.517044,0.096862793
45.5356298,-9.97788239
45.5542156,10.9480972
45.5728014,14.8747978
45.5913872,13.8022194
45.609973,12.7303619
45.6285588,6.65922546
45.6471446,19.58881
45.6657304,17.5191154
45.6843162,7.45014572
45.702902,9.38189697
45.7214878,7.31436539
45.7400736,1.24755859
45.7586594,19.1814728
45.7772452,8.11610794
45.795831,8.0514679
45.8144168,7.98754501
45.8330026,8.92434692
45.8515884,17.8618698
45.8701742,8.80010986
45.88876,3.73907471
45.9073458,16.6787605
45.9259316,16.6191711
45.9445174,9.56029892
45.9631032,0.502151489
45.981689,6.44472122
46.0002748,10.3880157
46.0188606,11.3320313
46.0374464,12.2767677
46.0560322,16.2222252
46.074618,13.1684074
46.0932038,22.1153069
46.1117896,25.0629311
46.1303754,16.0112724
46.1489612,28.9603386
46.167547,18.9101257
46.1861328,2.86063385
46.2047186,11.8118668
46.2233044,10.7638168
46.2418902,27.7164879
46.260476,-2.33011627
46.2790618,15.6240005
46.2976476,11.5788383
46.3162334,19.5343971
46.3348192,18.4906769
46.353405,4.44767761
46.3719908,-7.59459686
46.3905766,10.3638458
46.4091624,8.32301331
46.4277482,9.28290176
46.446334,18.2435112
46.4649198,-7.79515839
46.4835056,4.16689301
46.5020914,3.12966919
46.5206772,10.0931625
46.539263,-8.94261932
46.5578488,0.0223197937
46.5764346,4.98797607
46.5950204,2.95436096
46.6136062,2.92146301
46.632192,8.88928604
46.6507778,13.85783
46.6693636,22.8270988
46.6879494,21.7970886
46.7065352,-0.232200623
46.725121,7.73923111
46.7437068,11.7113838
46.7622926,-12.3157425
46.7808784,4.65785217
46.7994642,-0.367828369
46.81805,12.6072083
46.8366358,2.58296967
46.8552216,17.5594521
46.8738074,-8.46334457
46.8923932,-2.48542023
46.910979,5.49322891
46.9295648,6.47259521
46.9481506,11.4526863
46.9667364,-7.56650543
46.9853222,1.41502762
47.003908,6.39728165
47.0224938,10.3802567
47.0410796,5.36395645
47.0596654,1.34837341
47.0782512,-2.66648865
47.096837,2.31937408
47.1154228,5.30595779
47.1340086,4.29326248
47.1525944,9.28128815
47.1711802,-3.72996521
47.189766,-3.74049759
47.2083518,9.24969482
47.2269376,4.2406044
47.2455234,5.23223877
47.2641092,3.22459412
47.282695,-6.78232956
47.3012808,-3.8291893
47.3198666,-5.87532425
47.3384524,15.0792618
47.3570382,-4.96543503
47.375624,0.990592957
47.3942098,-2.05265808
47.4127956,5.90481567
47.4313814,-1.13699341
47.4499672,6.82191849
47.468553,13.7815552
47.4871388,9.74191284
47.5057246,3.70299149
47.5243104,-4.33520889
47.5428962,-4.37268829
47.561482,0.590553284
47.5800678,-3.44548035
47.5986536,-2.48079681
47.6172394,13.4846115
47.6358252,1.45074081
47.654411,9.41758728
47.6729968,-3.61483765
47.6915826,5.35345459
47.7101684,8.3224678
47.7287542,1.29220581
47.74734,9.26266098
47.7659258,20.2338409
47.7845116,6.20574188
47.8030974,3.1783638
47.8216832,1.1517067
47.840269,15.1257706
47.8588548,3.10055923
47.8774406,11.0760651
47.8960264,12.0522957
47.9146122,15.0292473
47.933198,12.0069199
47.9517838,20.9853134
47.9703696,15.9644279
47.9889554,20.9442635
48.0075412,19.9248238
48.026127,12.9061012
48.0447128,12.8881035
48.0632986,6.87082672
48.0818844,13.8542709
48.1004702,23.8384361
48.119056,33.8233223
48.1376418,14.8089333
48.1562276,5.79526138
48.1748134,12.7823143
48.1933992,34.7700882
48.211985,21.7585831
48.2305708,26.7477989
48.2491566,40.7377357
48.2677424,50.7283936
48.2863282,19.7197762
48.304914,32.7118759
48.3234998,34.7047005
48.3420856,35.698246
48.3606714,29.6925125
48.3792572,40.6875
48.397843,43.6832085
48.4164288,45.6796417
48.4350146,41.6767921
48.4536004,34.6746674
48.4721862,62.6732635
48.490772,61.6725807
48.5093578,68.6726227
48.5279436,63.673378
48.5465294,64.6748581
48.5651152,72.677063
48.583701,72.679985
48.6022868,83.6836319
48.6208726,83.6880035
48.6394584,100.693085
48.6580442,74.6988983
48.67663,92.7054291
48.6952158,87.7126846
48.7138016,123.720657
48.7323874,134.729355
48.7509732,134.73877
48.769559,161.748901
48.7881448,169.759766
48.8067306,188.771362
48.8253164,148.783661
48.8439022,193.796692
48.862488,182.810425
48.8810738,206.82489
48.8996596,213.840088
48.9182454,197.856003
48.9368312,234.872635
48.955417,187.889984
48.9740028,238.908051
48.9925886,203.926849
49.0111744,235.946381
49.0297602,236.966614
49.048346,219.987579
49.0669318,203.009262
49.0855176,198.031662
49.1041034,221.054794
49.1226892,205.078644
49.141275,194.10321
49.1598608,220.128494
49.1784466,209.15451
49.1970324,219.181244
49.2156182,207.208694
49.234204,227.236877
49.2527898,194.265778
49.2713756,215.295395
49.2899614,204.325729
49.3085472,200.356796
49.327133,207.38858
49.3457188,188.421082
49.3643046,143.454315
49.3828904,189.488251
49.4014762,164.522919
49.420062,162.558319
49.4386478,148.594437
49.4572336,158.631256
49.4758194,132.668823
49.4944052,116.7071
49.512991,109.746094
49.5315768,114.785812
49.5501626,74.8262634
49.5687484,74.8674164
49.5873342,73.9093018
49.60592,67.9519119
49.6245058,64.9952393
49.6430916,59.0392876
49.6616774,44.0840607
49.6802632,36.1295509
49.698849,44.175766
49.7174348,39.2226982
49.7360206,45.2703552
49.7546064,41.3187332
49.7731922,36.3678322
49.791778,56.4176559
49.8103638,31.4681969
49.8289496,45.5194626
49.8475354,36.5714455
49.8661212,31.6241531
49.884707,29.6775818
49.9032928,21.7317314
49.9218786,21.786602
49.9404644,31.8421936
49.9590502,26.89851
49.977636,43.9555473
49.9962218,32.0133018
50.0148076,71.0717773
50.0333934,28.1309814
50.0519792,46.1909027
50.070565,24.251545
50.0891508,55.312912
50.1077366,41.3749962
50.1263224,60.4378052
50.1449082,50.5013351
50.163494,66.5655823
50.1820798,52.630558
50.2006656,59.6962509
50.2192514,47.7626648
50.2378372,59.8298035
50.256423,44.8976593
50.2750088,36.9662399
50.2935946,45.0355415
50.3121804,37.1055641
50.3307662,29.1763077
50.349352,29.2477722
50.3679378,57.3199615
50.3865236,46.392868
50.4051094,48.4664993
50.4236952,51.5408516
50.442281,45.615921
50.4608668,38.6917152
50.4794526,30.7682343
50.4980384,35.8454704
50.5166242,25.9234276
50.53521,33.0021095
50.5537958,37.0815125
50.5723816,24.1616364
50.5909674,23.2424812
50.6095532,27.3240471
50.628139,41.4063339
50.6467248,34.4893417
50.6653106,41.5730743
50.6838964,19.6575241
50.7024822,64.7426987
50.721068,29.8285942
50.7396538,27.9152107
50.7582396,34.0025482
50.7768254,31.0906105
50.7954112,21.17939
50.813997,17.2688942
50.8325828,26.3591156
50.8511686,30.4500618
50.8697544,25.541729
50.8883402,26.6341171
50.906926,31.7272301
50.9255118,2.82106018
50.9440976,12.9156113
50.9626834,12.0108871
50.9812692,18.106884
50.999855,22.2036018
51.0184408,15.3010406
51.0370266,17.3992004
51.0556124,11.4980812
51.0741982,11.5976868
51.092784,8.69800949
51.1113698,28.799057
51.1299556,30.9008255
51.1485414,0.00331497192
51.1671272,18.1065254
51.185713,13.2104568
51.2042988,30.3151131
51.2228846,8.42048645
51.2414704,24.5265846
51.2600562,10.6334038
51.278642,27.7409401
51.2972278,2.8492012
51.3158136,0.958187103
51.3343994,34.0678902
51.3529852,22.1783142
51.371571,21.289463
51.3901568,12.4013329
51.4087426,8.51392365
51.4273284,-0.372764587
51.4459142,15.7412682
51.4645,2.85602188
51.4830858,3.97149658
51.5016716,1.08769608
51.5202574,7.20461273
51.5388432,7.32225418
51.557429,-5.55938339
51.5760148,3.55970001
51.5946006,15.6795044
51.6131864,4.80003357
51.6317722,17.9212799
51.650358,13.043251
51.6689438,3.16593933
51.6875296,4.28935242
51.7061154,9.41348648
51.7247012,16.5383415
51.743287,11.6639175
51.7618728,-2.20978165
51.7804586,-6.08276367
51.7990444,-2.97394943
51.8176302,10.1355858
51.836216,1.24584198
51.8548018,13.3568192
51.8733876,5.4685173
51.8919734,11.5809402
51.9105592,0.694080353
51.929145,17.8079453
51.9477308,7.92253113
51.9663166,2.03783798
51.9849024,5.15386581
52.0034882,-13.7293854
52.022074,0.388088226
52.0406598,8.50627899
52.0592456,13.6251945
52.0778314,10.7448311
52.0964172,15.8651886
52.115003,7.98626709
52.1335888,11.1080666
52.1521746,3.23058701
52.1707604,-1.64616776
52.1893462,0.477794647
52.207932,18.6024818
52.2265178,13.72789
52.2451036,10.8540192
52.2636894,11.9808693
52.2822752,6.1084404
52.300861,13.2367363
52.3194468,16.3657494
52.3380326,7.49548721
52.3566184,1.62594604
52.3752042,7.75712585
52.39379,-3.11097336
52.4123758,-8.97835159
52.4309616,4.01948547
52.4495474,-1.9819603
52.4681332,5.01731873
52.486719,2.01731873
52.5053048,16.0180397
52.5238906,0.0194854736
52.5424764,-6.97835159
52.5610622,0.975204468
52.579648,11.9294777
52.5982338,6.88447571
52.6168196,-2.1598053
52.6354054,-1.20336533
52.6539912,-2.24620056
52.672577,4.71168137
52.6911628,13.6702881
52.7097486,13.629612
52.7283344,0.589660645
52.7469202,6.5504303
52.765506,1.51192093
52.7840918,-0.525867462
52.8026776,-2.56293106
52.8212634,5.4007225
52.8398492,11.3651009
52.858435,0.330196381
52.8770208,-3.70398331
52.8956066,-2.73744202
52.9141924,4.22982025
52.9327782,11.1978073
52.951364,0.166511536
52.9699498,1.13594055
52.9885356,-6.89391327
53.0071214,1.0769577
53.0257072,5.04854965
53.044293,4.02086258
53.0628788,1.99389648
53.0814646,-1.03234863
53.1000504,4.94213104
53.1186362,-3.0826683
53.137222,0.893249512
53.1558078,3.86989212
53.1743936,10.8472557
53.1929794,-0.174659729
53.2115652,12.8041496
53.230151,6.78367615
53.2487368,14.7639236
53.2673226,5.74489594
53.2859084,9.7265892
53.3044942,14.7090034
53.32308,10.6921387
53.3416658,-6.32400513
53.3602516,-1.33942795
53.3788374,1.64587402
53.3974232,4.63189316
53.416009,-3.38136292
53.4345948,-2.39389801
53.4531806,6.59428787
53.4717664,9.58319473
53.4903522,-3.42717743
53.508938,-8.4368248
53.5275238,5.554245
53.5461096,5.54603958
53.5646954,5.53855515
53.5832812,-6.46820831
53.601867,-1.47425079
53.6204528,9.5204277
53.6390386,6.51582718
53.6576244,-3.48804855
53.6762102,5.50879288
53.694796,-3.4936409
53.7133818,7.5046463
53.7319676,9.50365448
53.7505534,6.50338364
53.7691392,12.5038338
53.787725,4.5050087
53.8063108,16.5069008
53.8248966,2.50951767
53.8434824,14.5128555
53.8620682,-5.48308563
53.880654,29.5216942
53.8992398,8.52719498
53.9178256,23.5334167
53.9364114,11.5403633
53.9549972,15.548027
53.973583,15.5564156
53.9921688,-3.43447495
54.0107546,23.5753555
54.0293404,11.585907
54.0479262,18.5971794
54.066512,15.6091766
54.0850978,19.621891
54.1036836,15.6353302
54.1222694,19.6494904
54.1408552,5.66436768
54.159441,13.6799736
54.1780268,15.6962967
54.1966126,4.71334076
54.2151984,2.7311058
54.2337842,13.7495956
54.25237,10.7688065
54.2709558,-4.21126175
54.2895416,-0.190608978
54.3081274,6.83076477
54.3267132,12.8528595
54.345299,3.8756752
54.3638848,3.8992157
54.3824706,3.92347717
54.4010564,-2.05154419
54.4196422,-0.0258407593
54.438228,-4.99941635
54.4568138,-2.97227097
54.4753996,8.05559921
54.4939854,11.0841866
54.5125712,-7.88650131
54.531157,5.1435318
54.5497428,11.1742821
54.5683286,19.2057571
54.5869144,-3.762043
54.6055002,-4.72912598
54.624086,7.30451202
54.6426718,5.33887482
54.6612576,-2.62604523
54.6798434,-12.5902405
54.6984292,7.44628525
54.717015,-4.51646805
54.7356008,-11.4785004
54.7541866,5.53216553
54.7727724,2.54354858
54.7913582,-0.444343567
54.809944,-2.43151474
54.8285298,-3.41796112
54.8471156,0.596309662
54.8657014,0.611301422
54.8842872,6.62701797
54.902873,6.64345551
54.9214588,9.6606102
54.9400446,0.678489685
54.9586304,9.69709015
54.9772162,-1.28358459
54.995802,9.73645782
55.0143878,-3.24277496
55.0329736,-0.221290588
55.0515594,9.80091858
55.0701452,11.8238487
55.088731,10.8474998
55.1073168,13.8718719
55.1259026,22.896965
55.1444884,24.9227829
55.1630742,7.94931793
55.18166,4.97657776
55.2002458,16.0045586
55.2188316,12.0332603
55.2374174,8.06268311
55.2560032,3.09282684
55.274589,18.1236954
55.2931748,22.1552811
55.3117606,27.1875916
55.3303464,21.2206192
55.3489322,23.2543716
55.367518,9.28884506
55.3861038,18.3240433
55.4046896,18.3599586
55.4232754,25.396595
55.4418612,19.4339561
55.460447,27.4720383
55.4790328,17.5108376
55.4976186,18.5503616
55.5162044,15.5906067
55.5347902,11.6315765
55.553376,16.6732635
55.5719618,17.7156754
55.5905476,17.7588043
55.6091334,4.80265808
55.6277192,11.8472328
55.646305,29.8925285
55.6648908,5.93854523
55.6834766,13.9852829
55.7020624,15.0327454
55.7206482,23.080925
55.739234,10.1298294
55.7578198,10.1794548
55.7764056,5.22980118
55.7949914,2.28086853
55.8135772,10.3326569
55.832163,11.38517
55.8507488,19.4384003
55.8693346,13.4923553
55.8879204,10.5470276
55.9065062,15.6024246
55.925092,9.65854263
55.9436778,1.71538162
55.9622636,8.7729454
55.9808494,9.83122635
55.9994352,15.8902321
56.018021,13.949955
56.0366068,12.0104027
56.0551926,24.0715714
56.0737784,16.133461
56.0923642,30.1960754
56.11095,11.259407
56.1295358,9.32345963
56.1481216,16.388237
56.1667074,9.45373535
56.1852932,5.51995468
56.203879,22.586895
56.2224648,20.6545563
56.2410506,10.7229385
56.2596364,14.7920456
56.2782222,10.8618698
56.296808,2.93241882
56.3153938,10.0036888
56.3339796,6.07567978
56.3525654,1.14839172
56.3711512,11.2218246
56.389737,13.2959785
56.4083228,-2.62914276
56.4269086,-4.55354691
56.4454944,-7.47722626
56.4640802,5.30276489
56.482666,0.083480835
56.5012518,8.86491776
56.5198376,8.64707565
56.5384234,12.4299545
56.5570092,14.2135544
56.575595,7.99787521
56.5941808,1.78292084
56.6127666,23.5686836
56.6313524,16.3551712
56.6499382,8.14237976
56.668524,0.930309296
56.6871098,8.71895981
56.7056956,7.5083313
56.7242814,-1.70157623
56.7428672,6.08924103
56.761453,14.8807755
56.7800388,7.67303467
56.7986246,11.4660149
56.8172104,8.25971603
56.8357962,4.05413818
56.854382,19.8492813
56.8729678,20.6451492
56.8915536,12.4417343
56.9101394,11.2390442
56.9287252,13.037075
56.947311,23.8358269
56.9658968,16.6352997
56.9844826,13.4354935
57.0030684,18.2364082
57.0216542,13.0380478
57.04024,-0.15959549
57.0588258,18.643486
57.0774116,5.44728851
57.0959974,22.251812
57.1145832,22.0570564
57.133169,20.8630257
57.1517548,1.66971207
57.1703406,11.4771194
57.1889264,13.2852516
57.2075122,14.0941048
57.226098,8.90367889
57.2446838,1.713974
57.2632696,18.5249901
57.2818554,22.336731
57.3004412,19.149189
57.319027,6.96237183
57.3376128,19.7762718
57.3561986,19.5908966
57.3747844,6.40624237
57.3933702,20.2223091
57.411956,28.0391006
57.4305418,23.8566093
57.4491276,18.6748428
57.4677134,10.4937935
57.4862992,10.3134689
57.504885,25.1338654
57.5234708,27.9549828
57.5420566,23.7768211
57.5606424,11.5993843
57.5792282,21.4226646
57.597814,15.2466698
57.6163998,34.0713921
57.6349856,25.8968391
57.6535714,18.7230072
57.6721572,26.5498962
57.690743,34.3775101
57.7093288,21.2058411
57.7279146,26.0348969
57.7465004,39.8646698
57.7650862,51.6951675
57.783672,50.5263863
57.8022578,37.358326
57.8208436,39.1909866
57.8394294,56.0243721
57.8580152,57.8584747
57.876601,75.6932983
57.8951868,70.5288544
57.9137726,70.3651123
57.9323584,87.2021027
57.9509442,85.0398254
57.96953,97.8782501
57.9881158,84.7174072
58.0067016,105.557281
58.0252874,102.397881
58.0438732,99.2391968
58.062459,97.0812378
58.0810448,114.924004
58.0996306,94.7674866
58.1182164,94.6116943
58.1368022,101.456619
58.155388,94.302269
58.1739738,70.1486359
58.1925596,83.9957275
58.2111454,107.843536
58.2297312,96.6920776
58.248317,83.5413361
58.2669028,75.3913116
58.2854886,65.2420044
58.3040744,62.0934258
58.3226602,68.9455719
58.341246,50.7984314
58.3598318,52.6520157
58.3784176,46.506321
58.3970034,33.361351
58.4155892,39.2170982
58.434175,24.0735703
58.4527608,21.9307632
58.4713466,30.7886734
58.4899324,22.6473083
58.5085182,21.5066681
58.527104,33.366745
58.5456898,39.2275429
58.5642756,7.08906555
58.5828614,13.9513054
58.6014472,9.81427002
58.620033,12.6779556
58.6386188,-3.45763779
58.6572046,20.4074898
58.6757904,20.2733421
58.6943762,3.13991165
58.712962,10.007206
58.7315478,14.8752213
58.7501336,3.7439537
58.7687194,-2.38658905
58.7873052,6.48359299
58.805891,21.3544922
58.8244768,17.2261124
58.8430626,7.09845734
58.8616484,5.97151947
58.8802342,15.8453064
58.89882,4.7198143
58.9174058,3.59504318
58.9359916,-2.52900696
58.9545774,17.3476677
58.9731632,1.22505951
58.991749,12.1031761
59.0103348,2.98200989
59.0289206,14.8615685
59.0475064,12.741848
59.0660922,3.62284851
59.084678,11.5045738
59.1032638,19.3870163
59.1218496,9.27018356
59.1404354,6.15406799
59.1590212,27.0386772
59.177607,23.9240074
59.1961928,20.8100586
59.2147786,16.6968307
59.2333644,16.5843277
59.2519502,19.4725418
59.270536,33.3614807
59.2891218,-3.74886322
59.3077076,4.14151764
59.3262934,3.03261948
59.3448792,17.9244423
59.363465,15.8169899
59.3820508,6.71025467
59.4006366,7.60424042
59.4192224,-10.501049
59.4378082,-0.605617523
59.456394,6.29053497
59.4749798,0.187408447
59.4935656,-2.9149971
59.5121514,-0.0166816711
59.5307372,11.8823586
59.549323,-7.21788406
59.5679088,-0.317401886
59.5864946,-7.41619873
59.6050804,-6.88700867
59.6236662,5.64290619
59.642252,-9.82645798
59.6608378,9.70489502
59.6794236,3.23697662
59.6980094,-1.23022461
59.7165952,4.30329132
59.735181,1.83753204
59.7537668,8.37249756
59.7723526,19.9081802
59.7909384,7.44458771
59.8095242,-4.01828003
59.82811,2.5195694
59.8466958,4.05813599
59.8652816,7.59742737
59.8838674,12.1374435
59.9024532,21.6781769
59.921039,11.219635
59.9396248,17.7618179
59.9582106,1.30471039
59.9767964,4.84833527
59.9953822,-2.60732269
60.013968,-8.06225586
60.0325538,-8.30662537
