'y-axis saved as y
'x,ML_Wallace_17122019_1_NN_1_ZrP_Crucible_12x16_14x161of2Crucibles_BlackPowder_5-60_4min_BkgSubtracted.raw
5,-23.0651245
5.0185858,-18.5301514
5.0371716,-32.9942322
5.0557574,-7.71139526
5.0743432,13.5724182
5.092929,-25.1428223
5.1115148,11.1429138
5.1301006,-15.5703735
5.1486864,13.7173157
5.1672722,-34.9940491
5.185858,-13.1442871
5.2044438,0.706451416
5.2230296,4.5581665
5.2416154,-22.5891724
5.2602012,45.2644653
5.278787,0.119049072
5.2973728,35.9746399
5.3159586,29.8311768
5.3345444,30.6886597
5.3531302,-13.4528503
5.371716,26.4065857
5.3903018,25.2669678
5.4088876,9.12835693
5.4274734,-9.00930786
5.4460592,20.8540039
5.464645,9.71826172
5.4832308,-19.4164734
5.5018166,-15.9309692
5.5204024,12.555481
5.5389882,19.0429382
5.557574,5.53134155
5.5761598,63.0206909
5.5947456,-6.48895264
5.6133314,3.00234985
5.6319172,34.4945984
5.650503,51.987854
5.6690888,21.4820557
5.6876746,34.9772339
5.7062604,12.4733582
5.7248462,30.970459
5.743432,-2.53146362
5.7620178,5.96759033
5.7806036,2.46759033
5.7991894,30.9685669
5.8177752,14.47052
5.836361,43.9734192
5.8549468,29.4772949
5.8735326,-0.0178527832
5.8921184,7.48794556
5.9107042,-0.00527954102
5.92929,-0.497528076
5.9478758,-18.9888
5.9664616,7.52087402
5.9850474,2.03152466
6.0036332,17.5431213
6.022219,2.05569458
6.0408048,8.56924438
6.0593906,55.0837708
6.0779764,42.5992432
6.0965622,7.11569214
6.115148,13.6331177
6.1337338,3.15151978
6.1523196,12.6708679
6.1709054,15.1911621
6.1894912,37.7124634
6.208077,49.2347107
6.2266628,-4.24206543
6.2452486,8.28210449
6.2638344,0.807281494
6.2824202,12.3334045
6.301006,5.86047363
6.3195918,14.3885498
6.3381776,-6.08242798
6.3567634,-5.55245972
6.3753492,-18.0214844
6.393935,24.510437
6.4125208,38.043335
6.4311066,-1.42282104
6.4496924,-31.8880005
6.4682782,9.64779663
6.486864,5.18457031
6.5054498,14.72229
6.5240356,16.2609711
6.5426214,39.8006439
6.5612072,27.3412628
6.579793,14.8828583
6.5983788,9.4254303
6.6169646,30.9689484
6.6355504,22.5134583
6.6541362,26.0589142
6.672722,34.6053467
6.6913078,10.1527405
6.7098936,37.7011108
6.7284794,16.2504425
6.7470652,7.80073547
6.765651,5.352005
6.7842368,-6.09576416
6.8028226,25.4574432
6.8214084,13.0116119
6.8399942,33.5667419
6.85858,0.122848511
6.8771658,47.6799164
6.8957516,14.2379608
6.9143374,47.7969666
6.9329232,27.3569336
6.951509,25.9178772
6.9700948,24.4797821
6.9886806,39.0426483
7.0072664,43.6064911
7.0258522,30.1712952
7.044438,28.7370758
7.0630238,16.3038177
7.0816096,28.871521
7.1001954,-7.55979919
7.1187812,-17.9901581
7.137367,6.91540527
7.1559528,5.82192993
7.1745386,-11.2705841
7.1931244,12.6378784
7.2117102,31.5473022
7.230296,-13.5422974
7.2488818,4.36906433
7.2674676,7.28138733
7.2860534,-5.80531311
7.3046392,24.1089478
7.323225,29.0241852
7.3418108,18.9403839
7.3603966,23.8575439
7.3789824,44.7756805
7.3975682,-6.30522156
7.416154,16.6148376
7.4347398,-5.46412659
7.4533256,1.45788574
7.4719114,-19.6191559
7.4904972,21.3047791
7.509083,3.22969055
7.5276688,-3.8444519
7.5462546,-0.917617798
7.5648404,-1.98980713
7.5834262,-1.06103516
7.602012,4.86869812
7.6205978,-8.20059204
7.6391836,4.7310791
7.6577694,1.66371155
7.6763552,9.59732056
7.694941,-7.46810913
7.7135268,-11.5325623
7.7321126,-0.954330444
7.7506984,19.6248627
7.7692842,10.2050323
7.78787,21.7861633
7.8064558,-2.63174438
7.8250416,-11.0486755
7.8436274,-10.4646454
7.8622132,0.120346069
7.880799,-11.2936859
7.8993848,1.29325867
7.9179706,-24.1188507
7.9365564,13.4700165
7.9551422,1.05986023
7.973728,-11.3493347
7.9923138,0.242431641
8.0108996,-18.1648407
8.0294854,8.42886353
8.0480712,-6.97645569
8.066657,-1.3808136
8.0852428,2.21578979
8.1038286,-14.1866455
8.1224144,2.41189575
8.1410002,-21.9886017
8.159586,-1.65621948
8.1781718,-1.32286072
8.1967576,-16.9885559
8.2153434,2.14186096
8.2339292,1.27325439
8.252515,-15.5943909
8.2711008,13.5389252
8.2896866,3.67321777
8.3082724,-5.19152832
8.3268582,12.9447021
8.345444,24.0818939
8.3640298,-3.779953
8.3826156,7.35917664
8.4012014,11.4992676
8.4197872,-2.35968018
8.438373,9.78234863
8.4569588,-9.07466125
8.4755446,6.06929779
8.4941304,16.2142258
8.5127162,36.3601227
8.531302,-2.49301147
8.5498878,-5.34518433
8.5684736,8.80361176
8.5870594,-11.0466232
8.6056452,-6.89589691
8.624231,6.25580597
8.6428168,-4.59152985
8.6614026,-0.437896729
8.6799884,1.71669769
8.6985742,6.87226868
8.71716,8.02880096
8.7357458,15.1863022
8.7543316,-6.65523529
8.7729174,17.5042038
8.7915032,-33.3353958
8.810089,1.82597351
8.8286748,9.98831177
8.8472606,8.15161133
8.8658464,-2.68411255
8.8844322,6.48112488
8.903018,20.6473236
8.9216038,27.8144989
8.9401896,10.9826355
8.9587754,12.1517487
8.9773612,8.32181549
8.995947,11.4928589
9.0145328,-17.3351364
9.0331186,5.83784485
9.0517044,-12.9882126
9.0702902,-4.92737579
9.088876,-5.8655777
9.1074618,7.19718933
9.1260476,25.2609253
9.1446334,5.32563019
9.1632192,12.3912964
9.181805,15.4579315
9.2003908,2.52553558
9.2189766,2.59410858
9.2375624,-14.3363571
9.2561482,6.73414612
9.274734,-1.19438171
9.2933198,3.87805939
9.3119056,11.9514694
9.3304914,-2.97415924
9.3490772,6.10118103
9.367663,7.17749023
9.3862488,-4.74523926
9.4048346,13.3330078
9.4234204,-7.58778381
9.4420062,14.4923935
9.460592,28.5735397
9.4791778,-1.34435272
9.4977636,6.73872375
9.5163494,4.82276917
9.5349352,19.9077835
9.553521,13.9937592
9.5721068,10.0807114
9.5906926,10.1686249
9.6092784,11.2574997
9.6278642,4.34735107
9.64645,17.4381638
9.6650358,26.5299454
9.6836216,6.62269592
9.7022074,12.7164154
9.7207932,-5.18890381
9.739379,-11.0932541
9.7579648,9.00336456
9.7765506,12.1009521
9.7951364,13.199501
9.8137222,13.2990265
9.832308,8.39951324
9.8508938,31.5009613
9.8694796,41.6033859
9.8880654,21.7067719
9.9066512,14.8111267
9.925237,5.9164505
9.9438228,2.02274323
9.9624086,-0.870002747
9.9809944,17.2382202
9.9995802,9.34741211
10.018166,-4.54242706
10.0367518,4.56869507
10.0553376,17.6807861
10.0739234,5.79384613
10.0925092,-13.0921249
10.111095,-3.9771347
10.1296808,9.13883209
10.1482666,-6.74423981
10.1668524,5.37365723
10.1854382,7.49251556
10.204024,17.6123428
10.2226098,5.73313904
10.2411956,5.85490417
10.2597814,14.9776382
10.2783672,11.1013336
10.296953,18.2259979
10.3155388,9.35163116
10.3341246,0.478233337
10.3527104,22.6057968
10.3712962,4.73433685
10.389882,26.8638382
10.4084678,0.994300842
10.4270536,11.1257401
10.4456394,26.2581406
10.4642252,12.39151
10.482811,14.5258484
10.5013968,21.6611557
10.5199826,4.79742432
10.5385684,17.9346619
10.5571542,6.07286835
10.57574,28.2120438
10.5943258,8.35218048
10.6129116,10.4932861
10.6314974,0.635360718
10.6500832,12.7784042
10.668669,8.92240906
10.6872548,19.0673904
10.7058406,9.21333313
10.7244264,-3.63976288
10.7430122,-6.49188232
10.761598,-0.343040466
10.7801838,13.8067703
10.7987696,-8.04244995
10.8173554,23.1092987
10.8359412,15.2620087
10.854527,26.4156876
10.8731128,23.5703354
10.8916986,16.7259521
10.9102844,5.88253021
10.9288702,2.04007721
10.947456,2.19859314
10.9660418,22.358078
10.9846276,21.5185318
11.0032134,18.6799469
11.0217992,11.8423309
11.040385,9.0056839
11.0589708,20.1699982
11.0775566,-5.664711
11.0961424,8.50154114
11.1147282,15.6687622
11.133314,3.83694458
11.1518998,13.0061035
11.1704856,1.17622375
11.1890714,-6.65268707
11.2076572,23.5193634
11.226243,5.69239044
11.2448288,-9.13362122
11.2634146,0.0413360596
11.2820004,8.21726227
11.3005862,10.3941498
11.319172,-8.42798615
11.3377578,18.7508392
11.3563436,-11.0693741
11.3749294,3.11138916
11.3935152,23.2931137
11.412101,24.4758148
11.4306868,12.6594696
11.4492726,15.844101
11.4678584,8.02970123
11.4864442,6.21626282
11.50503,23.4037933
11.5236158,-1.40771484
11.5422016,16.7817535
11.5607874,16.9721832
11.5793732,9.16358185
11.597959,14.3559494
11.6165448,22.5492859
11.6351306,14.7435837
11.6537164,7.9388504
11.6723022,12.1350861
11.690888,13.332283
11.7094738,22.5304565
11.7280596,28.7295914
11.7466454,26.9296951
11.7652312,9.13076782
11.783817,7.33280182
11.8024028,20.5358047
11.8209886,20.7397766
11.8395744,2.94471741
11.8581602,3.15061951
11.876746,15.3574982
11.8953318,4.56533813
11.9139176,8.77414703
11.9325034,26.9839172
11.9510892,18.194664
11.969675,13.4063721
11.9882608,-0.380950928
12.0068466,7.83268738
12.0254324,6.04730225
12.0440182,1.26287842
12.062604,3.47942352
12.0811898,23.6969299
12.0997756,29.9154129
12.1183614,16.1348572
12.1369472,9.35527039
12.155533,7.57665253
12.1741188,19.798996
12.1927046,19.022316
12.2112904,8.24659729
12.2298762,4.47184753
12.248462,16.6980591
12.2670478,32.9252472
12.2856336,-0.846603394
12.3042194,22.382515
12.3228052,7.6125946
12.341391,12.8436508
12.3599768,13.0756683
12.3785626,7.30865479
12.3971484,27.5426102
12.4157342,3.77752686
12.43432,-10.9865799
12.4529058,-2.97750854
12.4714916,-4.96746826
12.4900774,26.043541
12.5086632,22.0555191
12.527249,3.06845856
12.5458348,11.0823746
12.5644206,14.0972519
12.5830064,7.11309052
12.6015922,35.1299057
12.620178,14.1476822
12.6387638,15.1664276
12.6573496,16.186142
12.6759354,15.2068176
12.6945212,-2.77153015
12.713107,13.2510834
12.7316928,28.2746658
12.7502786,15.2992096
12.7688644,2.32472992
12.7874502,10.3512115
12.806036,15.3786621
12.8246218,20.407074
12.8432076,14.4364624
12.8617934,-4.53318787
12.8803792,3.4981308
12.898965,6.5304184
12.9175508,23.5636673
12.9361366,0.597885132
12.9547224,14.6330719
12.9733082,6.6692276
12.991894,7.70635223
13.0104798,24.7444382
13.0290656,8.78349304
13.0476514,6.82351685
13.0662372,21.8645096
13.084823,10.9064636
13.1034088,-1.0506134
13.1219946,4.9932785
13.1405804,2.03813934
13.1591662,-4.91603851
13.177752,4.13076019
13.1963378,-6.8214798
13.2149236,13.2272415
13.2335094,-0.723060608
13.2520952,0.327598572
13.270681,11.3792267
13.2892668,-2.56817627
13.3078526,6.48538971
13.3264384,5.53991699
13.3450242,7.59541321
13.36361,13.6518784
13.3821958,4.70931244
13.4007816,-1.23229218
13.4193674,18.8270798
13.4379532,3.8874054
13.456539,2.94870758
13.4751248,3.0109787
13.4937106,-6.92578888
13.5122964,12.1384125
13.5308822,12.2035828
13.549468,2.26971436
13.5680538,3.33682251
13.5866396,0.404891968
13.6052254,-6.52606964
13.6238112,2.54393005
13.642397,0.614906311
13.6609828,1.68684387
13.6795686,-1.24024963
13.6981544,7.83361816
13.7167402,-5.09153748
13.735326,-2.01573181
13.7539118,12.0610428
13.7724976,13.1387863
13.7910834,28.2174911
13.8096692,15.2971725
13.828255,19.3778152
13.8468408,17.4594269
13.8654266,13.5419998
13.8840124,10.6255493
13.9025982,-3.28993988
13.921184,0.795539856
13.9397698,3.8819809
13.9583556,9.9693985
13.9769414,9.0577774
13.9955272,3.14712524
14.014113,5.23744202
14.0326988,-14.6712799
14.0512846,21.4209671
14.0698704,29.514183
14.0884562,30.6083679
14.107042,24.7035217
14.1256278,24.7996368
14.1442136,21.8967209
14.1627994,12.9947739
14.1813852,16.0937881
14.199971,18.193779
14.2185568,37.2947311
14.2371426,34.3966522
14.2557284,7.49954224
14.2743142,-2.39660645
14.2929,-0.291786194
14.3114858,-0.185997009
14.3300716,9.92076111
14.3486574,25.0284882
14.3672432,0.137176514
14.385829,-2.7531662
14.4044148,22.35746
14.4230006,4.46904755
14.4415864,5.58161163
14.4601722,-11.304863
14.478758,16.8096313
14.4973438,-10.074913
14.5159296,5.04151917
14.5345154,-4.84108734
14.5531012,-5.72272491
14.571687,1.39659882
14.5902728,22.5168991
14.6088586,-4.36183929
14.6274444,6.76039124
14.6460302,11.8835907
14.664616,-8.99224091
14.6832018,-3.86711121
14.7017876,10.2589874
14.7203734,4.38605499
14.7389592,-9.48591614
14.757545,-3.44335175
14.7761308,10.600174
14.7947166,1.64466858
14.8133024,6.69013214
14.8318882,-1.26343536
14.850474,26.7839584
14.8690598,-18.1676788
14.8876456,6.88165283
14.9062314,6.93195343
14.9248172,10.983223
14.943403,8.0354538
14.9619888,-2.91134644
14.9805746,17.1428223
14.9991604,-7.80204773
15.0177462,11.2540588
15.036332,27.3111267
15.0549178,-7.63083649
15.0735036,4.42816162
15.0920894,12.4881363
15.1106752,5.54907227
15.129261,33.6109772
15.1478468,12.6738434
15.1664326,0.737686157
15.1850184,-7.19750977
15.2036042,1.86826324
15.22219,-1.06499481
15.2407758,15.0027084
15.2593616,1.07138824
15.2779474,10.1410294
15.2965332,19.2116394
15.315119,-11.7167892
15.3337048,8.35575867
15.3522906,3.42926788
15.3708764,3.50374603
15.3894622,-7.42081451
15.408048,1.6556015
15.4266338,-1.26702118
15.4452196,17.8113251
15.4638054,12.8906403
15.4823912,13.9709167
15.500977,-6.94783783
15.5195628,-5.86562347
15.5381486,-2.78244019
15.5567344,12.301712
15.5753202,-0.613174438
15.593906,5.47290802
15.6124918,9.55995941
15.6310776,2.64797974
15.6496634,-3.26303864
15.6682492,-5.17308807
15.686835,4.91783142
15.7054208,19.0097198
15.7240066,7.10256958
15.7425924,8.19639587
15.7611782,-11.7088165
15.779764,-0.613067627
15.7983498,-0.516342163
15.8169356,2.5813446
15.8355214,-4.31999969
15.8541072,-5.22037506
15.872693,0.880218506
15.8912788,6.98177338
15.9098646,-1.91570282
15.9284504,10.1877899
15.9470362,-7.70774841
15.965622,-8.60232544
15.9842078,-3.59913635
16.0027936,2.40501404
16.0213794,9.41013336
16.0399652,-3.58377838
16.058551,-1.57672119
16.0771368,7.4312973
16.0957226,-10.5597153
16.1143084,4.45024109
16.1328942,21.4611664
16.15148,-1.52694702
16.1700658,0.485916138
16.1886516,-0.500259399
16.2072374,-12.4854736
16.2258232,1.50292206
16.244409,-12.5077209
16.2629948,23.4826126
16.2815806,-7.52609253
16.3001664,8.46617126
16.3187522,4.45939636
16.337338,6.45359802
16.3559238,-2.55123901
16.3745096,7.44489288
16.3930954,6.44199371
16.4116812,0.440055847
16.430267,5.43908691
16.4488528,12.4390869
16.4674386,15.4400558
16.4860244,-3.55800629
16.5046102,1.44489288
16.523196,3.44876099
16.5417818,12.453598
16.5603676,8.45940399
16.5789534,10.4661713
16.5975392,14.4739075
16.616125,0.48261261
16.6347108,-5.50771332
16.6532966,2.50292206
16.6718824,-17.4854736
16.6904682,-1.48692322
16.709054,7.51259613
16.7276398,6.51307678
16.7462256,-16.4854736
16.7648114,-5.48212433
16.7833972,9.52220154
16.801983,10.5274811
16.8205688,0.533737183
16.8391546,3.54096222
16.8577404,12.5491486
16.8763262,12.5583038
16.894912,2.56842804
16.9134978,2.57951355
16.9320836,4.59156799
16.9506694,4.60459137
16.9692552,0.618583679
16.987841,-5.36645508
17.0064268,-2.35053253
17.0250126,12.6663589
17.0435984,7.68421936
17.0621842,-9.29695129
17.08077,17.7228394
17.0993558,-1.25640106
17.1179416,5.76532745
17.1365274,4.7880249
17.1551132,5.81169128
17.173699,13.836319
17.1922848,12.8619156
17.2108706,7.88848114
17.2294564,-1.083992
17.2480422,3.94450378
17.266628,6.97397614
17.2852138,21.0044022
17.3037996,3.03580475
17.3223854,19.0681686
17.3409712,6.10150909
17.359557,-7.86419678
17.3781428,5.17107391
17.3967286,4.20731354
17.4153144,-2.75548553
17.4339002,-2.71731567
17.452486,2.32181549
17.4710718,2.36192322
17.4896576,14.4029922
17.5082434,-1.55496979
17.5268292,5.48803711
17.545415,21.5320129
17.5640008,10.5769501
17.5825866,0.62285614
17.6011724,5.66973114
17.6197582,16.7175751
17.638344,29.7663803
17.6569298,9.81615448
17.6755156,17.8668976
17.6941014,13.9186096
17.7126872,6.97128296
17.731273,-4.97506714
17.7498588,16.0795441
17.7684446,-1.86488342
17.7870304,17.1916656
17.8056162,4.24917603
17.824202,6.30765533
17.8427878,7.36710358
17.8613736,14.4275208
17.8799594,24.4888992
17.8985452,12.5512466
17.917131,20.614563
17.9357168,-11.3211517
17.9543026,6.74409485
17.9728884,16.8103104
17.9914742,22.8774948
18.01006,0.945648193
18.0286458,-10.9852295
18.0472316,-0.0419464111
18.0658174,2.9023056
18.0844032,-4.15247345
18.102989,12.7937164
18.1215748,4.74086761
18.1401606,9.68899536
18.1587464,11.6380844
18.1773322,20.5881348
18.195918,-1.46083832
18.2145038,4.4911499
18.2330896,5.44410706
18.2516754,2.39803314
18.2702612,18.3529205
18.288847,1.30878448
18.3074328,5.26560974
18.3260186,7.22340393
18.3446044,-7.81784058
18.3631902,2.14189148
18.381776,-6.89741516
18.4003618,2.06424713
18.4189476,5.02687073
18.4375334,-3.00952911
18.4561192,0.955032349
18.474705,-2.07943726
18.4932908,13.8870621
18.5118766,7.85452271
18.5304624,-2.1770401
18.5490482,0.792358398
18.567634,-3.2372818
18.5862198,10.7340546
18.6048056,8.70635223
18.6233914,3.67961884
18.6419772,2.65385437
18.660563,-7.37094116
18.6791488,10.6052246
18.6977346,0.582366943
18.7163204,2.56047058
18.7349062,4.53953552
18.753492,8.51957703
18.7720778,8.50057983
18.7906636,3.48255157
18.8092494,18.4654922
18.8278352,17.4493942
18.846421,-1.56572723
18.8650068,5.42011261
18.8835926,10.4069138
18.9021784,-4.60530853
18.9207642,-0.616569519
18.93935,8.37314606
18.9579358,4.36382294
18.9765216,-6.64453888
18.9951074,-11.6519241
19.0136932,8.34165192
19.032279,-5.6638031
19.0508648,-1.66828918
19.0694506,-0.671813965
19.0880364,3.32563019
19.1066222,6.32404327
19.125208,6.32342529
19.1437938,5.32377625
19.1623796,10.3250885
19.1809654,3.32736969
19.1995512,11.3306198
19.218137,1.33483887
19.2367228,16.3400192
19.2553086,4.34616852
19.2738944,-2.64671326
19.2924802,12.3613739
19.311066,7.37042236
19.3296518,-9.61955261
19.3482376,18.3914337
19.3668234,3.40338135
19.3854092,-1.58369446
19.403995,-3.56980896
19.4225808,-4.55495453
19.4411666,9.46086884
19.4597524,15.4776611
19.4783382,-1.50458527
19.496924,1.51413727
19.5155098,-1.46617126
19.5340956,37.5544891
19.5526814,-6.42388916
19.5712672,13.5987015
19.589853,1.62226105
19.6084388,25.6467896
19.6270246,10.6722794
19.6456104,4.69874573
19.6641962,3.7261734
19.682782,4.75457001
19.7013678,1.78392792
19.7199536,-6.18574524
19.7385394,17.8455582
19.7571252,6.87781525
19.775711,7.91104889
19.7942968,10.9452438
19.8128826,-8.01958466
19.8314684,2.01654053
19.8500542,6.05364227
19.86864,6.09171295
19.8872258,-6.86925507
19.9058116,5.17074585
19.9243974,-3.7882843
19.9429832,-4.74635315
19.961569,9.29654694
19.9801548,5.34041595
19.9987406,-3.61474609
20.0173264,15.4310608
20.0359122,-2.52217102
20.054498,8.5255661
20.0730838,-4.42572784
20.0916696,7.62394714
20.1102554,-3.32541656
20.1288412,13.7261887
20.147427,0.778762817
20.1660128,1.83230591
20.1845986,5.88681793
20.2031844,10.9422913
20.2217702,17.9987335
20.240356,16.0561447
20.2589418,6.11451721
20.2775276,11.1738663
20.2961134,13.2341766
20.3146992,1.2954483
20.333285,17.3576965
20.3518708,-3.57909393
20.3704566,20.4850922
20.3890424,12.5502319
20.4076282,2.61634827
20.426214,4.68343353
20.4447998,9.7514801
20.4633856,0.820495605
20.4819714,17.89048
20.5005572,13.9614258
20.519143,8.03334045
20.5377288,5.10622406
20.5563146,-4.8199234
20.5749004,1.25489807
20.5934862,11.3306808
20.612072,11.4074326
20.6306578,32.4851532
20.6492436,28.5638428
20.6678294,11.6434937
20.6864152,17.7241135
20.705001,7.80570221
20.7235868,-0.111740112
20.7421726,-3.02822113
20.7607584,-2.94372559
20.7793442,18.1417313
20.79793,-6.77185059
20.8165158,2.31554413
20.8351016,10.4039001
20.8536874,21.4932251
20.8722732,10.583519
20.890859,13.6747818
20.9094448,8.76700592
20.9280306,23.860199
20.9466164,22.954361
20.9652022,1.04949188
20.983788,9.14558411
21.0023738,15.2426453
21.0209596,5.34067535
21.0395454,15.4396744
21.0581312,15.5396423
21.076717,8.64057159
21.0953028,15.7424698
21.1138886,9.84533691
21.1324744,20.9491653
21.1510602,14.0539703
21.169646,11.1597366
21.1882318,7.26647186
21.2068176,20.3741684
21.2254034,21.4828415
21.2439892,18.5924759
21.262575,-5.29692078
21.2811608,-8.18535614
21.2997466,-0.312820435
21.3183324,5.56069183
21.3369182,9.43516541
21.355504,18.3106003
21.3740898,13.1870117
21.3926756,23.0643845
21.4112614,0.942726135
21.4298472,6.82203674
21.448433,3.70231628
21.4670188,16.5835571
21.4856046,18.4657669
21.5041904,7.34894562
21.5227762,13.2330933
21.541362,9.11820221
21.5599478,16.0042801
21.5785336,19.8913269
21.5971194,0.779342651
21.6157052,16.6683273
21.634291,27.5582733
21.6528768,20.4491882
21.6714626,1.34107208
21.6900484,19.2339172
21.7086342,-3.87226105
21.72722,18.022522
21.7458058,-4.08172607
21.7643916,6.81498718
21.7829774,15.712677
21.8015632,11.6113281
21.820149,14.5109482
21.8387348,22.4115295
21.8573206,7.31308746
21.8759064,27.2156067
21.8944922,18.1190948
21.913078,0.0235519409
21.9316638,20.9289703
21.9502496,17.8353653
21.9688354,28.7427216
21.9874212,13.6510391
22.006007,-0.439666748
22.0245928,1.47058868
22.0431786,9.38181305
22.0617644,16.2940063
22.0803502,7.20716858
22.098936,11.1212921
22.1175218,5.03639221
22.1361076,8.95245361
22.1546934,15.8694763
22.1732792,8.78747559
22.191865,3.70643616
22.2104508,9.62636566
22.2290366,-0.452735901
22.2476224,-4.53087616
22.2662082,17.3919601
22.284794,12.3157578
22.3033798,6.24052429
22.3219656,20.1662521
22.3405514,7.09295654
22.3591372,9.02062225
22.377723,11.9492569
22.3963088,17.8788528
22.4148946,6.80942535
22.4334804,9.74095917
22.4520662,-2.32653809
22.470652,10.6069336
22.4892378,8.54136658
22.5078236,6.47676849
22.5264094,9.41313934
22.5449952,0.350479126
22.563581,0.288787842
22.5821668,-0.771942139
22.6007526,1.16829681
22.6193384,16.1095047
22.6379242,1.05168152
22.65651,16.9948196
22.6750958,14.9389267
22.6936816,11.8840027
22.7122674,9.83004761
22.7308532,2.77706146
22.749439,-0.274963379
22.7680248,2.67398071
22.7866106,8.62389374
22.8051964,-1.42523193
22.8237822,-6.47338867
22.842368,-3.52057648
22.8609538,15.4332047
22.8795396,15.3879547
22.8981254,6.34366608
22.9167112,-4.69965363
22.935297,-7.74200439
22.9538828,-0.78338623
22.9724686,4.17619324
22.9910544,-8.86325073
23.0096402,3.0982666
23.028226,-8.93925476
23.0468118,0.0242004395
23.0653976,10.9886169
23.0839834,6.95400238
23.1025692,4.92035675
23.121155,24.8876724
23.1397408,11.8559647
23.1583266,6.8252182
23.1769124,8.79544067
23.1954982,-2.23337555
23.214084,2.73878479
23.2326698,14.7119064
23.2512556,8.68599701
23.2698414,26.6610565
23.2884272,9.63707733
23.307013,9.61406708
23.3255988,14.5920258
23.3441846,0.570953369
23.3627704,-3.44915009
23.3813562,-5.46829224
23.399942,-5.48646545
23.4185278,-15.5036697
23.4371136,12.4800873
23.4556994,7.46482086
23.4742852,10.4505157
23.492871,5.43717957
23.5114568,10.4248047
23.5300426,-0.586593628
23.5486284,-2.59703064
23.5672142,7.39350128
23.5858,11.3850021
23.6043858,1.37746429
23.6229716,4.37089539
23.6415574,8.36529541
23.6601432,22.3606644
23.678729,9.35700226
23.6973148,-6.64569855
23.7159006,20.3525696
23.7344864,4.35180664
23.7530722,1.35201263
23.771658,-1.64682007
23.7902438,6.35531616
23.8088296,-3.64157867
23.8274154,8.36249542
23.8460012,-1.63246918
23.864587,18.3735352
23.8831728,1.38050842
23.9017586,6.38845062
23.9203444,6.39736176
23.9389302,-1.59276581
23.957516,-0.581924438
23.9761018,27.4298859
23.9946876,35.4426575
24.0132734,17.4564056
24.0318592,12.4711151
24.050445,24.4867935
24.0690308,21.5034332
24.0876166,29.5210495
24.1062024,24.5396271
24.1247882,36.5591736
24.143374,11.579689
24.1619598,16.6011658
24.1805456,19.6236115
24.1991314,17.6470261
24.2177172,13.6714096
24.236303,13.6967621
24.2548888,22.7230759
24.2734746,19.7503586
24.2920604,21.7786102
24.3106462,11.8078308
24.329232,39.8380127
24.3478178,11.8691635
24.3664036,2.90128326
24.3849894,3.93437195
24.4035752,19.9684219
24.422161,21.0034409
24.4407468,21.0394287
24.4593326,27.0763855
24.4779184,14.1143112
24.4965042,16.1531982
24.51509,17.1930542
24.5336758,11.2338791
24.5522616,20.2756653
24.5708474,-7.68157196
24.5894332,-0.6378479
24.608019,5.40683746
24.6266048,23.4524994
24.6451906,9.49913025
24.6637764,8.54672241
24.6823622,27.5952835
24.700948,8.64480591
24.7195338,14.6953049
24.7381196,6.74676514
24.7567054,11.7991943
24.7752912,-11.1474075
24.793877,9.9069519
24.8124628,1.9622879
24.8310486,3.01858521
24.8496344,-6.92414856
24.8682202,10.134079
24.886806,-5.80671692
24.9053918,0.253448486
24.9239776,8.31458282
24.9425634,11.3766785
24.9611492,4.43975067
24.979735,10.5037842
24.9983208,19.5687866
25.0169066,-5.365242
25.0354924,2.70169067
25.0540782,-0.230407715
25.072664,4.83846283
25.0912498,10.9083023
25.1098356,24.9791107
25.1284214,6.05088043
25.1470072,-0.87638092
25.165593,14.1973267
25.1841788,15.2720032
25.2027646,-4.65235901
25.2213504,-4.57575226
25.2399362,-4.49817657
25.258522,-1.41963196
25.2771078,4.65987396
25.2956936,18.7403488
25.3142794,10.8217926
25.3328652,9.90420532
25.351451,11.987587
25.3700368,1.07192993
25.3886226,6.15724182
25.4072084,21.2435226
25.4257942,14.3307648
25.44438,14.4189835
25.4629658,17.5081635
25.4815516,-0.401687622
25.5001374,4.68942261
25.5187232,0.781509399
25.537309,-2.1254425
25.5558948,11.9685745
25.5744806,9.06356049
25.5930664,2.15950775
25.6116522,11.256424
25.630238,8.35430908
25.6488238,14.4531631
25.6674096,-6.44701385
25.6859954,-5.34622955
25.7045812,6.75552368
25.723167,12.8582458
25.7417528,2.96193695
25.7603386,-0.933410645
25.7789244,8.17221069
25.7975102,-6.72119904
25.816096,-3.61363983
25.8346818,14.4948807
25.8532676,10.6043701
25.8718534,3.71482849
25.8904392,-3.1737442
25.909025,3.93865204
25.9276108,-0.947990417
25.9461966,2.16633606
25.9647824,3.28163147
25.9833682,0.397888184
26.001954,-17.4848785
26.0205398,0.474067688
26.0391256,-3.56601715
26.0577114,8.39485931
26.0762972,24.3567123
26.094883,11.3195267
26.1134688,11.2833023
26.1320546,23.2480545
26.1506404,24.213768
26.1692262,8.18045044
26.187812,9.14810181
26.2063978,-2.88327789
26.2249836,1.08630371
26.2435694,13.0568619
26.2621552,19.0283813
26.280741,1.00086212
26.2993268,8.97431946
26.3179126,4.9487381
26.3364984,9.92412567
26.3550842,4.90048218
26.37367,17.8778
26.3922558,-4.14390564
26.4108416,-4.16464996
26.4294274,-1.18442535
26.4480132,8.79676056
26.466599,8.77892303
26.4851848,-5.23795319
26.5037706,-2.25386047
26.5223564,5.73119354
26.5409422,0.717224121
26.559528,1.704216
26.5781138,9.69217682
26.5966996,5.68110657
26.6152854,2.67099762
26.6338712,-12.3381424
26.652457,-0.346313477
26.6710428,1.64648438
26.6896286,0.64025116
26.7082144,14.6349792
26.7268002,4.63067627
26.745386,14.6273422
26.7639718,-10.3750229
26.7825576,23.6235733
26.8011434,9.62313843
26.8197292,-7.37632751
26.838315,-0.374824524
26.8569008,5.62763977
26.8754866,-8.36891937
26.8940724,4.63548279
26.9126582,16.6408463
26.931244,6.64718628
26.9498298,-2.34551239
26.9684156,-8.33724213
26.9870014,7.67199707
27.0055872,-5.3177948
27.024173,-8.30662537
27.0427588,-3.37606812
27.0613446,3.55545807
27.0799304,2.48795319
27.0985162,16.4214172
27.117102,1.35584259
27.1356878,14.2912445
27.1542736,7.2276001
27.1728594,4.16493225
27.1914452,-0.896766663
27.210031,0.0424957275
27.2286168,17.9827271
27.2472026,8.92392731
27.2657884,12.8660889
27.2843742,27.809227
27.30296,9.75332642
27.3215458,3.69838715
27.3401316,-3.35557556
27.3587174,-3.40857697
27.3773032,10.5393982
27.395889,-1.51167297
27.4144748,-0.561767578
27.4330606,8.38910675
27.4516464,-10.6590576
27.4702322,6.29374695
27.488818,9.24751282
27.5074038,-0.797744751
27.5259896,-1.84204102
27.5445754,16.1146317
27.5631612,12.0722733
27.581747,-4.96911621
27.6003328,20.9904556
27.6189186,16.9509964
27.6375044,17.9125061
27.6560902,27.8749847
27.674676,1.83842468
27.6932618,-4.19716644
27.7118476,15.7682114
27.7304334,26.7345581
27.7490192,13.7018661
27.767605,11.6701431
27.7861908,14.639389
27.8047766,29.6096039
27.8233624,47.5807877
27.8419482,38.5529327
27.860534,101.526047
27.8791198,119.50013
27.8977056,199.475174
27.9162914,199.451202
27.9348772,201.428177
27.953463,242.406128
27.9720488,204.38504
27.9906346,198.364929
28.0092204,157.345779
28.0278062,132.327606
28.046392,129.310394
28.0649778,103.294136
28.0835636,101.278862
28.1021494,86.2645493
28.1207352,102.251198
28.139321,92.2388229
28.1579068,104.227409
28.1764926,69.2169647
28.1950784,88.207489
28.2136642,79.1989822
28.23225,131.191437
28.2508358,92.1848602
28.2694216,80.1792526
28.2880074,110.174614
28.3065932,96.1709366
28.325179,121.168236
28.3437648,97.1664963
28.3623506,66.1657181
28.3809364,104.165916
28.3995222,91.1670761
28.418108,144.169205
28.4366938,149.172302
28.4552796,172.176361
28.4738654,190.181396
28.4924512,180.187393
28.511037,183.194366
28.5296228,176.202301
28.5482086,158.211182
28.5667944,118.221054
28.5853802,100.231888
28.603966,87.2436905
28.6225518,84.2564545
28.6411376,87.270195
28.6597234,68.2848969
28.6783092,65.30056
28.696895,70.3171997
28.7154808,68.3348007
28.7340666,93.3533707
28.7526524,104.37291
28.7712382,176.393417
28.789824,247.414886
28.8084098,361.437317
28.8269956,365.460724
28.8455814,380.485107
28.8641672,344.510437
28.882753,385.536743
28.9013388,317.564026
28.9199246,287.592285
28.9385104,247.62149
28.9570962,187.651657
28.975682,161.6828
28.9942678,114.714912
29.0128536,106.747986
29.0314394,89.7820358
29.0500252,57.8170471
29.068611,49.8530273
29.0871968,43.8899689
29.1057826,43.927887
29.1243684,25.9667664
29.1429542,-7.99338531
29.16154,27.0474319
29.1801258,11.0892105
29.1987116,19.131958
29.2172974,9.17567444
29.2358832,-0.779640198
29.254469,5.2660141
29.2730548,21.3126297
29.2916406,14.3602142
29.3102264,15.4087677
29.3288122,3.45828247
29.347398,4.5087738
29.3659838,10.5602264
29.3845696,8.61264801
29.4031554,5.66603088
29.4217412,-9.27960968
29.440327,0.77571106
29.4589128,6.83200073
29.4774986,-1.11074066
29.4960844,-8.05252075
29.5146702,3.00667572
29.533256,1.0668335
29.5518418,4.12795258
29.5704276,8.19004822
29.5890134,8.25310516
29.6075992,23.317131
29.626185,-3.61787415
29.6447708,4.4480896
29.6633566,-9.48498535
29.6819424,-3.41500854
29.7005282,5.65592957
29.719114,8.72783661
29.7376998,5.80071259
29.7562856,0.874557495
29.7748714,-5.05062866
29.7934572,-6.97485352
29.812043,10.1018906
29.8306288,-0.820396423
29.8492146,4.25828552
29.8678004,2.33792877
29.8863862,9.41854095
29.904972,15.5001221
29.9235578,5.58267212
29.9421436,15.6661835
29.9607294,-2.24933624
29.9793152,13.836113
29.997901,-0.0774688721
30.0164868,7.00991821
30.0350726,11.0982666
30.0536584,14.1875839
30.0722442,24.2778702
30.09083,11.3691177
30.1094158,29.4613419
30.1280016,16.5545273
30.1465874,18.6486816
30.1651732,-8.2562027
30.183759,22.8398895
30.2023448,32.9369431
30.2209306,17.0349655
30.2395164,15.1339569
30.2581022,29.2339096
30.276688,39.3348312
30.2952738,42.4367218
30.3138596,38.5395813
30.3324454,33.6434097
30.3510312,32.7481995
30.369617,27.8539581
30.3882028,40.9606857
30.4067886,30.0683746
30.4253744,25.1770401
30.4439602,27.2866669
30.462546,24.3972626
30.4811318,21.5088196
30.4997176,26.6213531
30.5183034,14.734848
30.5368892,15.8493118
30.555475,18.9647446
30.5740608,-1.91886139
30.5926466,12.1985092
30.6112324,12.3168411
30.6298182,4.43613434
30.648404,15.5564041
30.6669898,3.67763519
30.6855756,-4.20016479
30.7041614,0.92300415
30.7227472,23.047142
30.741333,3.17224121
30.7599188,6.29830933
30.7785046,12.4253464
30.7970904,-9.44664764
30.8156762,3.68232727
30.834262,5.81226349
30.8528478,2.94316864
30.8714336,8.0750351
30.8900194,7.20787811
30.9086052,5.34168243
30.927191,-6.52354431
30.9457768,6.61219788
30.9643626,12.748909
30.9829484,20.8865814
31.0015342,23.0252228
31.02012,-3.83516693
31.0387058,19.3054123
31.0572916,4.44695282
31.0758774,10.5894623
31.0944632,8.73294067
31.113049,-3.122612
31.1316348,1.02280426
31.1502206,-1.83081818
31.1688064,4.31652832
31.1873922,24.4648438
31.205978,5.61412048
31.2245638,12.7643738
31.2431496,8.91558838
31.2617354,-0.932235718
31.2803212,22.2209167
31.298907,24.3750305
31.3174928,34.5301208
31.3360786,44.6861725
31.3546644,60.8431854
31.3732502,79.0011749
31.391836,90.1601257
31.4104218,122.320045
31.4290076,129.480927
31.4475934,123.642784
31.4661792,130.805603
31.484765,127.969391
31.5033508,111.134148
31.5219366,118.299873
31.5405224,129.466553
31.5591082,103.634216
31.577694,56.8028412
31.5962798,61.972435
31.6148656,57.1429901
31.6334514,50.3145142
31.6520372,50.4870071
31.670623,46.6604691
31.6892088,25.8348999
31.7077946,33.0102921
31.7263804,22.1866531
31.7449662,24.3639793
31.763552,26.5422745
31.7821378,23.7215385
31.8007236,19.9017677
31.8193094,5.08296585
31.8378952,6.26512909
31.856481,33.4482613
31.8750668,12.6323586
31.8936526,19.8174248
31.9122384,12.0034561
31.9308242,-2.80954361
31.94941,11.3784256
31.9679958,12.5673561
31.9865816,24.7572594
32.0051674,-2.05187225
32.0237532,12.1399651
32.042339,-3.66723251
32.0609248,12.526535
32.0795106,15.7212715
32.0980964,-3.08302307
32.1166822,-4.88635254
32.135268,17.3112869
32.1538538,1.50989151
32.1724396,0.709465027
32.1910254,10.9100037
32.2096112,8.11151123
32.228197,-5.68601227
32.2467828,-8.48257065
32.2653686,6.48026657
32.2839544,9.44407272
32.3025402,-0.591156006
32.321126,4.3745842
32.3397118,15.3412895
32.3582976,3.30896378
32.3768834,2.27760315
32.3954692,1.24721146
32.414055,7.2177887
32.4326408,10.1893311
32.4512266,17.1618385
32.4698124,14.1353149
32.4883982,12.1097603
32.506984,8.08517075
32.5255698,-1.93845367
32.5441556,20.0388947
32.5627414,0.0172042847
32.5813272,18.9964867
32.599913,19.9767303
32.6184988,-8.04205322
32.6370846,16.9401245
32.6556704,7.92327499
32.6742562,-4.09260941
32.692842,3.89247131
32.7114278,-7.12147903
32.7300136,13.8655396
32.7485994,-12.1464767
32.7671852,0.842472076
32.785771,-3.16761017
32.8043568,-1.17672348
32.8229426,3.81512833
32.8415284,-5.19205093
32.8601142,15.8017349
32.8787,5.79648972
32.8972858,-0.207790375
32.9158716,-7.21110153
32.9344574,-5.22848511
32.9530432,12.7550964
32.971629,-3.26035309
32.9902148,0.725166321
33.0088006,15.7116508
33.0273864,2.69910431
33.0459722,4.68752289
33.064558,6.67690659
33.0831438,4.66726303
33.1017296,10.6585808
33.1203154,-3.34912872
33.1389012,9.64412308
33.157487,14.6383476
33.1760728,1.63353729
33.1946586,7.62969208
33.2132444,-1.3731842
33.2318302,0.624904633
33.250416,14.6239624
33.2690018,16.6239891
33.2875876,8.62498093
33.3061734,7.62694168
33.3247592,3.62986755
33.343345,-3.36624146
33.3619308,7.63862228
33.3805166,-8.35555267
33.3991024,1.65124512
33.4176882,5.65900421
33.436274,10.6677361
33.4548598,0.677433014
33.4734456,-1.31190491
33.4920314,0.699726105
33.5106172,-2.28767776
33.529203,10.7258873
33.5477888,-2.2595787
33.5663746,-5.24407959
33.5849604,4.77238464
33.6035462,-0.210178375
33.622132,6.80821991
33.6407178,-0.172412872
33.6593036,1.84792328
33.6778894,1.86922455
33.6964752,-6.10850525
33.715061,1.91473007
33.7336468,20.9389343
33.7522326,-5.03589249
33.7708184,2.99024582
33.7894042,-10.9826508
33.80799,-1.98546219
33.8265758,19.0126953
33.8451616,-11.9881783
33.8637474,7.0119133
33.8823332,2.01296997
33.900919,-3.98500443
33.9195048,5.01799011
33.9380906,7.02194977
33.9566764,21.0268745
33.9752622,13.0327682
33.993848,22.0396309
34.0124338,15.0474586
34.0310196,14.0562553
34.0496054,7.06601715
34.0681912,14.0767479
34.086777,22.0884438
34.1053628,11.1011086
34.1239486,19.1147423
34.1425344,25.1293411
34.1611202,27.1449051
34.179706,32.161438
34.1982918,27.1789398
34.2168776,14.1974068
34.2354634,21.2168388
34.2540492,17.2372398
34.272635,31.2586098
34.2912208,16.2809448
34.3098066,27.3042488
34.3283924,22.3285179
34.3469782,15.353756
34.365564,13.3799591
34.3841498,16.4071312
34.4027356,24.4352722
34.4213214,14.4643784
34.4399072,11.4944496
34.458493,20.5254898
34.4770788,10.5574989
34.4956646,13.5904732
34.5142504,16.6244125
34.5328362,22.6593208
34.551422,13.6951981
34.5700078,7.73204041
34.5885936,21.7698517
34.6071794,9.80862808
34.6257652,10.8483734
34.644351,20.8890839
34.6629368,9.93076324
34.6815226,14.9734077
34.7001084,9.01702118
34.7186942,12.0616035
34.73728,12.107151
34.7558658,26.1536636
34.7744516,14.2011452
34.7930374,13.2495956
34.8116232,20.2990112
34.830209,34.3493958
34.8487948,4.40074539
34.8673806,31.4530602
34.8859664,7.50634766
34.9045522,12.5605965
34.923138,24.615818
34.9417238,26.6720047
34.9603096,20.7291565
34.9788954,23.7872772
34.9974812,24.8463631
35.016067,14.9064178
35.0346528,26.9674416
35.0532386,19.0294304
35.0718244,26.0923843
35.0904102,40.1563072
35.108996,33.221199
35.1275818,41.287056
35.1461676,73.3538818
35.1647534,59.4216728
35.1833392,75.4904327
35.201925,94.5601578
35.2205108,118.630852
35.2390966,123.702507
35.2576824,186.775146
35.2762682,242.84874
35.294854,415.923309
35.3134398,555.99884
35.3320256,782.075317
35.3506114,846.152771
35.3691972,882.231201
35.387783,841.310608
35.4063688,774.390991
35.4249546,777.47229
35.4435404,731.554626
35.4621262,608.637878
35.480712,558.722107
35.4992978,470.807312
35.5178836,344.893494
35.5364694,287.980621
35.5550552,233.06871
35.573641,179.157776
35.5922268,132.247818
35.6108126,111.338821
35.6293984,81.4307938
35.6479842,60.5237312
35.66657,55.6176376
35.6851558,49.7125092
35.7037416,34.8083458
35.7223274,38.9051552
35.7409132,27.0029259
35.759499,43.1016693
35.7780848,26.2013779
35.7966706,19.3020515
35.8152564,36.4036942
35.8338422,26.5063019
35.852428,10.6098785
35.8710138,15.7144241
35.8895996,5.81993484
35.9081854,4.92641068
35.9267712,23.0338554
35.945357,28.1422691
35.9639428,9.25164795
35.9825286,-1.6380043
36.0011144,-0.526691437
36.0197002,24.5855865
36.038286,14.6988373
36.0568718,8.81304932
36.0754576,11.9282341
36.0940434,5.044384
36.1126292,4.16149902
36.131215,-4.72041702
36.1498008,4.39863205
36.1683866,-7.48134995
36.1869724,-3.47808075
36.2055582,5.52615356
36.224144,-1.46864319
36.2427298,0.537525177
36.2613156,4.54466248
36.2799014,25.5527649
36.2984872,5.56183624
36.317073,-3.42812347
36.3356588,0.582881927
36.3542446,11.5948524
36.3728304,9.6077919
36.3914162,5.62170029
36.410002,9.63657379
36.4285878,6.65241623
36.4471736,-6.33077621
36.4657594,-2.31299973
36.4843452,12.7057419
36.502931,3.72545242
36.5215168,-4.25387192
36.5401026,5.76777267
36.5586884,8.79038239
36.5772742,7.81396103
36.59586,10.8385048
36.6144458,2.86401749
36.6330316,7.89049911
36.6516174,-3.08205414
36.6702032,4.94636154
36.688789,4.97574234
36.7073748,7.00608826
36.7259606,2.03740311
36.7445464,-0.93031311
36.7631322,4.10293579
36.781718,10.1371536
36.8003038,1.17233658
36.8188896,2.20848846
36.8374754,4.24560928
36.8560612,2.28369522
36.874647,-5.67725372
36.8932328,4.36276627
36.9118186,12.4037514
36.9304044,6.44570923
36.9489902,13.4886284
36.967576,1.53251648
36.9861618,10.5773735
37.0047476,-0.376804352
37.0233334,3.66998672
37.0419192,-3.28225708
37.060505,0.766468048
37.0790908,-1.18384171
37.0976766,0.866817474
37.1162624,15.9184418
37.1348482,-0.0289649963
37.153434,-4.97540665
37.1720198,8.07912064
37.1906056,0.134616852
37.2091914,-3.80892181
37.2277772,4.24850464
37.246363,9.30690384
37.2649488,4.36626434
37.2835346,2.42659378
37.3021204,2.48789215
37.3207062,-7.44984436
37.339292,12.6133881
37.3578778,10.6775856
37.3764636,-4.25724792
37.3950494,1.80888367
37.4136352,-3.12401581
37.432221,-3.05594635
37.4508068,6.01308823
37.4693926,0.0830879211
37.4879784,4.15405655
37.5065642,5.22599411
37.52515,2.29889679
37.5437358,-13.6272354
37.5623216,8.44760132
37.5809074,12.523407
37.5994932,19.6001778
37.618079,7.67791748
37.6366648,-4.24337769
37.6552506,-0.163703918
37.6738364,-11.0830612
37.6924222,5.99854279
37.711008,-0.918880463
37.7295938,3.16466141
37.7481796,1.2491684
37.7667654,7.33464432
37.7853512,10.4210892
37.803937,-5.49150085
37.8225228,-6.40312576
37.8411086,-0.361724854
37.8596944,6.68064499
37.8782802,4.72397995
37.896866,-9.23171997
37.9154518,4.81354904
37.9340376,5.85978699
37.9526234,4.90699005
37.9712092,10.955162
37.989795,11.0042992
38.0083808,6.05440521
38.0269666,9.10547638
38.0455524,2.15751648
38.0641382,6.21052551
38.082724,4.26449966
38.1013098,9.31943893
38.1198956,3.37534714
38.1384814,-3.56777573
38.1570672,-1.50993347
38.175653,2.5488739
38.1942388,16.608654
38.2128246,3.66939545
38.2314104,10.7311058
38.2499962,0.793785095
38.268582,-2.1425705
38.2871678,-0.0779571533
38.3057536,13.9876251
38.3243394,6.0541687
38.3429252,7.12168503
38.361511,1.19016647
38.3800968,6.25961304
38.3986826,3.33002853
38.4172684,-5.59858704
38.4358542,2.47376251
38.45444,-11.4529228
38.4730258,-0.378635406
38.4916116,9.69661331
38.5101974,2.77283096
38.5287832,3.85001755
38.547369,9.92816925
38.5659548,-8.99271011
38.5845406,6.08737564
38.6031264,3.16843033
38.6217122,9.25045395
38.640298,12.3334427
38.6588838,-0.582603455
38.6774696,6.50231934
38.6960554,2.58821106
38.7146412,7.6750679
38.733227,8.76288986
38.7518128,15.8516808
38.7703986,1.94144058
38.7889844,3.03216553
38.8075702,16.1238594
38.826156,1.2165184
38.8447418,7.31014633
38.8633276,24.4047394
38.8819134,5.50030136
38.9004992,18.5968285
38.919085,8.69432449
38.9376708,9.79278946
38.9562566,6.89221954
38.9748424,3.99261475
38.9934282,4.09397888
39.012014,12.196312
39.0305998,4.29961014
39.0491856,-2.59612274
39.0677714,12.5091095
39.0863572,0.615310669
39.104943,1.72247696
39.1235288,8.83061218
39.1421146,7.93971252
39.1607004,15.0497818
39.1792862,7.16081619
39.197872,7.27281952
39.2164578,7.38578796
39.2350436,-5.50027466
39.2536294,4.61463165
39.2722152,16.7305031
39.290801,4.84733963
39.3093868,-2.03485107
39.3279726,-5.91608047
39.3465584,-7.00602722
39.3651442,7.90499496
39.38373,4.81698608
39.4023158,7.72994232
39.4209016,2.64386749
39.4394874,5.55875778
39.4580732,7.47461319
39.476659,5.39144135
39.4952448,10.3092308
39.5138306,12.227993
39.5324164,-0.852283478
39.5510022,-0.931587219
39.569588,-1.00992584
39.5881738,6.91270065
39.6067596,8.83629608
39.6253454,1.76085663
39.6439312,9.68638611
39.662517,17.6128845
39.6811028,11.5403481
39.6996886,2.46878052
39.7182744,12.3981781
39.7368602,9.3285408
39.755446,-2.74012756
39.7740318,17.192173
39.7926176,-3.87456131
39.8112034,16.0596733
39.8297892,23.9948769
39.848375,9.93104172
39.8669608,-4.13182068
39.8855466,15.806282
39.9041324,8.74534988
39.9227182,8.68538666
39.941304,12.6263924
39.9598898,16.5683632
39.9784756,7.51129913
39.9970614,17.455204
40.0156472,17.4000778
40.034233,19.3459167
40.0528188,20.2927246
40.0714046,13.2404976
40.0899904,13.1892395
40.1085762,25.1389465
40.127162,19.0896225
40.1457478,10.0412636
40.1643336,36.9938736
40.1829194,46.9474525
40.2015052,46.9019966
40.220091,93.8575058
40.2386768,117.81398
40.2572626,167.771423
40.2758484,192.729843
40.2944342,216.689224
40.31302,239.649567
40.3316058,241.610886
40.3501916,190.573166
40.3687774,220.536407
40.3873632,198.500626
40.405949,209.465805
40.4245348,163.431961
40.4431206,144.399078
40.4617064,110.367157
40.4802922,88.3362122
40.498878,93.3062286
40.5174638,60.2772179
40.5360496,44.2491684
40.5546354,36.2220879
40.5732212,43.1959763
40.591807,29.1708298
40.6103928,32.1466522
40.6289786,33.1234398
40.6475644,14.1011963
40.6661502,24.0799179
40.684736,26.0596085
40.7033218,23.0402641
40.7219076,22.0218887
40.7404934,30.0044785
40.7590792,13.9880371
40.777665,24.9725647
40.7962508,20.9580574
40.8148366,22.9445152
40.8334224,19.931942
40.8520082,12.9203377
40.870594,20.9096985
40.8891798,15.9000282
40.9077656,14.8913231
40.9263514,17.8835869
40.9449372,12.8768158
40.963523,7.87101364
40.9821088,0.866176605
41.0006946,18.8623085
41.0192804,10.8594093
41.0378662,5.85747147
41.056452,8.85650635
41.0750378,7.85650635
41.0936236,15.8574715
41.1122094,3.85940933
41.1307952,18.8623085
41.149381,1.86617661
41.1679668,-4.12898636
41.1865526,4.8768158
41.2051384,5.88358688
41.2237242,6.89132309
41.24231,2.90002823
41.2608958,4.90969849
41.2794816,5.92033768
41.2980674,2.93194199
41.3166532,2.94451523
41.335239,9.9580574
41.3538248,-2.0274353
41.3724106,0.988037109
41.3909964,0.00447845459
41.4095822,4.02188873
41.428168,1.04026413
41.4467538,-7.94039154
41.4653396,11.0799179
41.4839254,-8.89880371
41.5025112,10.1234398
41.521097,15.1466522
41.5396828,-9.82917023
41.5582686,5.19597626
41.5768544,5.22208786
41.5954402,9.2491684
41.614026,1.27721786
41.6326118,8.30623245
41.6511976,11.3362122
41.6697834,6.3671608
41.6883692,3.39907837
41.706955,6.43196106
41.7255408,-0.534187317
41.7441266,-6.49937057
41.7627124,6.53641129
41.7812982,11.5731659
41.799884,11.6108818
41.8184698,6.64957047
41.8370556,15.6892242
41.8556414,-2.27015686
41.8742272,-10.228569
41.892813,7.81398392
41.9113988,4.8575058
41.9299846,27.9019966
41.9485704,14.9474525
41.9671562,1.9938736
41.985742,4.04126358
42.0043278,2.0896225
42.0229136,14.1389465
42.0414994,9.1892395
42.0600852,6.24049759
42.078671,7.29272461
42.0972568,10.3459167
42.1158426,-2.59992218
42.1344284,-0.54479599
42.1530142,1.51129913
42.1716,18.5683632
42.1901858,4.62639236
42.2087716,2.68538666
42.2273574,-0.254650116
42.2459432,-7.19371796
42.264529,2.86817932
42.2831148,0.931045532
42.3017006,4.99487686
42.3202864,1.05967331
42.3388722,-0.874557495
42.357458,-4.807827
42.3760438,12.2598763
42.3946296,7.3285408
42.4132154,-0.601821899
42.4318012,0.468780518
42.450387,-0.459651947
42.4689728,7.61288452
42.4875586,-1.31361008
42.5061444,-9.23913956
42.5247302,6.83629608
42.543316,1.91270065
42.5619018,0.990074158
42.5804876,0.0684127808
42.5990734,10.1477203
42.6176592,-0.772006989
42.636245,-1.69076538
42.6548308,3.39144135
42.6734166,8.474617
42.6920024,19.5587578
42.7105882,-10.3561325
42.729174,11.7299423
42.7477598,2.81698608
42.7663456,9.90499878
42.7849314,6.99397659
42.8035172,-5.91608047
42.822103,-7.92671585
42.8406888,9.06361389
42.8592746,-0.945087433
42.8778604,13.0471764
42.8964462,13.0404091
42.915032,6.03460693
42.9336178,16.0297737
42.9522036,8.02590561
42.9707894,1.02300644
42.9893752,-9.97892761
43.007961,0.00193786621
43.0265468,11.9837761
43.0451326,2.96657562
43.0637184,17.9503441
43.0823042,1.93508148
43.10089,-6.079216
43.1194758,6.90745544
43.1380616,-3.10490799
43.1566474,-9.11630249
43.1752332,5.87326813
43.193819,3.86380768
43.2124048,6.85531235
43.2309906,-0.15221405
43.2495764,2.84122467
43.2681622,8.83563232
43.286748,16.8310089
43.3053338,8.82735062
43.3239196,10.8246574
43.3425054,-2.17706299
43.3610912,20.8221779
43.379677,10.8223877
43.3982628,12.8235664
43.4168486,9.8257103
43.4354344,13.8288231
43.4540202,5.832901
43.472606,8.83794785
43.4911918,-3.15604019
43.5097776,8.8509407
43.5283634,-6.14110947
43.5469492,14.8678055
43.565535,12.8776855
43.5841208,6.88853455
43.6027066,-7.09964752
43.6212924,-4.08686447
43.6398782,-1.0731163
43.658464,-0.0583953857
43.6770498,3.95728683
43.6956356,-5.02606201
43.7142214,-4.00844193
43.7328072,3.01014328
43.751393,9.02969742
43.7699788,-1.94977951
43.7885646,-1.92829514
43.8071504,4.09416199
43.8257362,-2.88241577
43.844322,-0.858028412
43.8629078,7.16732788
43.8814936,6.19365311
43.9000794,9.22094345
43.9186652,-2.75080109
43.937251,1.27842712
43.9558368,17.3086166
43.9744226,6.33977509
43.9930084,4.37190247
44.0115942,-4.59500504
44.03018,-6.5609436
44.0487658,7.47408676
44.0673516,-1.48992157
44.0859374,5.54704285
44.1045232,6.58497238
44.123109,-0.376132965
44.1416948,-1.33626938
44.1602806,10.7045631
44.1788664,2.74636078
44.1974522,6.78912354
44.216038,7.83285522
44.2346238,4.87755585
44.2532096,-0.0767784119
44.2717954,5.96985626
44.2903812,17.0174561
44.308967,5.06602478
44.3275528,-8.88444138
44.3461386,-2.8339386
44.3647244,12.2175331
44.3833102,4.26996613
44.401896,17.3233719
44.4204818,-9.62225723
44.4390676,16.4330788
44.4576534,5.4893837
44.4762392,8.54665756
44.494825,0.604896545
44.5134108,6.66410446
44.5319966,8.7242775
44.5505824,8.78541946
44.5691682,-0.15247345
44.587754,-4.08939743
44.6063398,1.97464371
44.6249256,3.03965378
44.6435114,0.105628967
44.6620972,16.1725731
44.680683,13.2404861
44.6992688,5.3093605
44.7178546,3.37920761
44.7364404,13.4500198
44.7550262,-7.47819901
44.773612,-12.5426903
44.7921978,16.3937836
44.8107836,6.33122253
44.8293694,4.26963425
44.8479552,3.20900726
44.866541,10.149353
44.8851268,5.0906601
44.9037126,14.0329399
44.9222984,-1.02381516
44.9408842,5.9203949
44.95947,5.86557388
44.9780558,0.811721802
44.9966416,3.75883484
45.0152274,9.70691299
45.0338132,1.65596008
45.052399,0.605976105
45.0709848,4.55695724
45.0895706,9.50890732
45.1081564,6.46182251
45.1267422,17.4157028
45.145328,4.37055588
45.1639138,11.3263741
45.1824996,11.2831573
45.2010854,10.2409096
45.2196712,-3.80037308
45.238257,6.1593132
45.2568428,8.11996841
45.2754286,6.08158875
45.2940144,21.0441742
45.3126002,-6.99227142
45.331186,2.97225189
45.3497718,4.93774033
45.3683576,-4.09580612
45.3869434,-3.12837982
45.4055292,11.8400078
45.424115,4.80936813
45.4427008,24.7796898
45.4612866,1.75098419
45.4798724,2.72324371
45.4984582,-5.30353165
45.517044,-2.32933807
45.5356298,21.6458206
45.5542156,0.621948242
45.5728014,1.5990448
45.5913872,11.5771065
45.609973,13.5561371
45.6285588,10.5361328
45.6471446,8.51709366
45.6657304,3.49902344
45.6843162,4.48192215
45.702902,-0.53421402
45.7214878,11.4506187
45.7400736,17.4364204
45.7586594,8.42318344
45.7772452,10.4109192
45.795831,18.3996201
45.8144168,16.389286
45.8330026,17.379921
45.8515884,22.3715248
45.8701742,14.3640938
45.88876,28.3576279
45.9073458,45.3521309
45.9259316,53.3476028
45.9445174,64.3440399
45.9631032,129.341446
45.981689,154.339813
46.0002748,169.339157
46.0188606,132.339462
46.0374464,145.340729
46.0560322,142.342972
46.074618,115.346184
46.0932038,132.350357
46.1117896,135.355499
46.1303754,128.361603
46.1489612,97.3686829
46.167547,69.3767319
46.1861328,66.3857422
46.2047186,60.3957176
46.2233044,36.4066658
46.2418902,37.4185753
46.260476,28.4314537
46.2790618,33.4453011
46.2976476,15.4601173
46.3162334,4.47589493
46.3348192,19.4926453
46.353405,8.51036072
46.3719908,6.52904129
46.3905766,-3.4513092
46.4091624,-0.43069458
46.4277482,-3.40911102
46.446334,11.6134415
46.4649198,13.6369591
46.4835056,0.661445618
46.5020914,9.68689728
46.5206772,13.7133179
46.539263,6.74070358
46.5578488,9.76905823
46.5764346,2.79837799
46.5950204,-5.17133331
46.6136062,9.8599205
46.632192,6.89214325
46.6507778,11.9253311
46.6693636,3.95948792
46.6879494,6.99461365
46.7065352,6.0307045
46.725121,1.06776047
46.7437068,-4.89421463
46.7622926,-8.85522079
46.7808784,8.18473816
46.7994642,8.22566605
46.81805,1.26755905
46.8366358,3.31042099
46.8552216,-3.64575195
46.8738074,5.39904404
46.8923932,6.44480515
46.910979,2.49153519
46.9295648,-4.46076965
46.9481506,-2.41210556
46.9667364,5.63752747
46.9853222,3.68812561
47.003908,-8.26031113
47.0224938,6.79222107
47.0410796,3.8457222
47.0596654,-5.09981155
47.0782512,-3.04437637
47.096837,2.01202393
47.1154228,0.069393158
47.1340086,-6.87227249
47.1525944,2.18703079
47.1711802,2.24729919
47.189766,12.3085365
47.2083518,19.370739
47.2269376,-0.56608963
47.2455234,10.4980507
47.2641092,8.56315613
47.282695,-10.3707733
47.3012808,-5.30373383
47.3198666,7.7642746
47.3384524,-10.1667519
47.3570382,3.90319061
47.375624,3.97409821
47.3942098,-1.95402908
47.4127956,11.1188164
47.4313814,9.19262314
47.4499672,-3.73259735
47.468553,-5.65685272
47.4871388,1.39277649
47.5057246,-2.55662918
47.5243104,1.4949379
47.5428962,-6.45253372
47.561482,7.60096359
47.5800678,-1.34457016
47.5986536,8.71086121
47.6172394,-1.23273849
47.6358252,5.82462692
47.654411,11.8829613
47.6729968,1.94226074
47.6915826,-1.99747086
47.7101684,-7.93623734
47.7287542,10.1259651
47.74734,-5.81086349
47.7659258,1.25327301
47.7845116,4.31837463
47.8030974,4.38444519
47.8216832,9.45148468
47.840269,12.5194893
47.8588548,6.58845901
47.8774406,10.6583977
47.8960264,-1.27069473
47.9146122,0.801177979
47.933198,8.87401962
47.9517838,4.94782639
47.9703696,-12.9773979
47.9889554,-4.1030159
48.0075412,7.77233505
48.026127,12.6486511
48.0447128,11.5259361
48.0632986,8.40418625
48.0818844,16.2834053
48.1004702,4.16359329
48.119056,18.0447426
48.1376418,2.92686462
48.1562276,8.80995178
48.1748134,11.6940041
48.1933992,-0.420974731
48.211985,13.4650154
48.2305708,-0.648029327
48.2491566,1.23989487
48.2677424,3.12878418
48.2863282,0.0186424255
48.304914,0.90946579
48.3234998,-2.19874191
48.3420856,5.6940155
48.3606714,-2.41225815
48.3792572,5.48243332
48.397843,0.378093719
48.4164288,6.27472305
48.4350146,7.1723175
48.4536004,-1.92912292
48.4721862,2.97040558
48.490772,2.87090302
48.5093578,5.77236557
48.5279436,9.67479706
48.5465294,2.57819366
48.5651152,-1.51744461
48.583701,0.387889862
48.6022868,10.2941856
48.6208726,2.20145416
48.6394584,-0.890312195
48.6580442,3.01888657
48.67663,10.9290543
48.6952158,-7.15981293
48.7138016,-3.24771118
48.7323874,5.6653595
48.7509732,-4.42060471
48.769559,9.49439621
48.7881448,-5.58963394
48.8067306,-4.67269516
48.8253164,3.24520874
48.8439022,2.16408157
48.862488,-5.91608047
48.8810738,-4.98511124
48.8996596,4.94682693
48.9182454,-5.12026978
48.9368312,9.81359863
48.955417,7.74843597
48.9740028,-2.31575775
48.9925886,17.6210136
49.0111744,14.558754
49.0297602,13.4974594
49.048346,1.43713379
49.0669318,14.3777733
49.0855176,13.3193817
49.1041034,12.2619591
49.1226892,9.20549774
49.141275,18.1500092
49.1598608,23.0954857
49.1784466,20.0419273
49.1970324,25.9893379
49.2156182,44.9377174
49.234204,46.8870621
49.2527898,54.8373756
49.2713756,58.7886543
49.2899614,85.7409058
49.3085472,112.694115
49.327133,132.6483
49.3457188,202.603439
49.3643046,247.559555
49.3828904,320.516632
49.4014762,331.474701
49.420062,349.433716
49.4386478,328.393677
49.4572336,347.354645
49.4758194,297.316559
49.4944052,282.279449
49.512991,319.243286
49.5315768,273.20813
49.5501626,249.173904
49.5687484,219.140656
49.5873342,159.108383
49.60592,179.077057
49.6245058,127.046722
49.6430916,104.017342
49.6616774,81.9889374
49.6802632,49.9614906
49.698849,46.9350128
49.7174348,38.9095039
49.7360206,30.884964
49.7546064,30.8613892
49.7731922,9.83877945
49.791778,35.8171387
49.8103638,16.7964668
49.8289496,19.7767601
49.8475354,24.7580223
49.8661212,14.7402496
49.884707,9.72344589
49.9032928,8.70760727
49.9218786,12.6927376
49.9404644,5.67883301
49.9590502,14.6658974
49.977636,6.65393066
49.9962218,21.6429291
50.0148076,24.6328926
50.0333934,22.6238251
50.0519792,20.6157265
50.070565,19.608593
50.0891508,18.6024246
50.1077366,20.5972252
50.1263224,24.5929947
50.1449082,30.5897293
50.163494,-0.412567139
50.1820798,43.5861015
50.2006656,35.5857391
50.2192514,38.5863457
50.2378372,49.5879135
50.256423,32.5904541
50.2750088,38.5939598
50.2935946,26.5984306
50.3121804,35.6038704
50.3307662,27.6102791
50.349352,22.6176529
50.3679378,30.6259918
50.3865236,24.6353035
50.4051094,25.6455765
50.4236952,28.6568184
50.442281,26.6690292
50.4608668,29.6822052
50.4794526,28.6963501
50.4980384,26.7114639
50.5166242,28.7275429
50.53521,21.7445869
50.5537958,21.7625999
50.5723816,25.7815781
50.5909674,26.8015251
50.6095532,22.8224411
50.628139,14.8443222
50.6467248,21.8671684
50.6653106,17.8909874
50.6838964,15.9157677
50.7024822,28.9415169
50.721068,15.968235
50.7396538,10.9959183
50.7582396,19.0245705
50.7768254,24.0541916
50.7954112,11.084774
50.813997,22.1163292
50.8325828,-3.85115051
50.8511686,16.1823349
50.8697544,16.2167892
50.8883402,26.2522125
50.906926,18.2886009
50.9255118,10.3259544
50.9440976,5.36427689
50.9626834,12.4035683
50.9812692,2.44382477
50.999855,5.4850502
51.0184408,12.5272408
51.0370266,8.57040024
51.0556124,-3.38547516
51.0741982,6.65961838
51.092784,-1.29431915
51.1113698,4.75270844
51.1299556,4.80070114
51.1485414,0.849662781
51.1671272,1.89958954
51.185713,10.950489
51.2042988,17.0023499
51.2228846,10.0551796
51.2414704,15.1089783
51.2600562,-4.83625793
51.278642,-8.78052521
51.2972278,9.27617264
51.3158136,1.33383942
51.3343994,-2.60752869
51.3529852,3.45207214
51.371571,4.51263809
51.3901568,4.57417297
51.4087426,13.6366768
51.4273284,-1.29985428
51.4459142,2.76457977
51.4645,8.82998276
51.4830858,0.896354675
51.5016716,7.96369171
51.5202574,12.0319939
51.5388432,7.10126877
51.557429,2.17150497
51.5760148,2.24271011
51.5946006,12.3148842
51.6131864,2.38802719
51.6317722,8.4621315
51.650358,-1.46279144
51.6689438,-5.38674927
51.6875296,-1.30974197
51.7061154,-5.23176575
51.7247012,6.8471756
51.743287,0.927089691
51.7618728,4.00796509
51.7804586,18.0898094
51.7990444,1.17262268
51.8176302,2.25640106
51.836216,3.34114838
51.8548018,5.42686081
51.8733876,16.5135422
51.8919734,1.60118866
51.9105592,7.68980408
51.929145,6.77938461
51.9477308,5.86993408
51.9663166,12.9614487
51.9849024,-2.94606781
52.0034882,8.14738464
52.022074,4.24180222
52.0406598,11.3371849
52.0592456,8.43353653
52.0778314,4.53085709
52.0964172,14.6291428
52.115003,2.72839737
52.1335888,12.8286171
52.1521746,22.9298058
52.1707604,11.0319595
52.1893462,9.13508224
52.207932,8.23917007
52.2265178,7.34422684
52.2451036,25.4502487
52.2636894,31.5572395
52.2822752,38.6651993
52.300861,66.7741241
52.3194468,54.8840141
52.3380326,49.994873
52.3566184,41.1067009
52.3752042,41.2194939
52.39379,35.3332558
52.4123758,55.4479828
52.4309616,36.5636787
52.4495474,31.6803398
52.4681332,24.7979698
52.486719,29.9165649
52.5053048,25.036129
52.5238906,24.1566582
52.5424764,12.2781563
52.5610622,20.4006233
52.579648,9.52405548
52.5982338,13.6484528
52.6168196,14.773819
52.6354054,10.9001541
52.6539912,2.02745438
52.672577,-1.84427643
52.6911628,4.28495789
52.7097486,1.41516113
52.7283344,8.5463295
52.7469202,17.6784668
52.765506,13.8115692
52.7840918,6.94564056
52.8026776,-0.919322968
52.8212634,13.2166824
52.8398492,-4.64634323
52.858435,9.49159622
52.8770208,-1.36949921
52.8956066,7.7703743
52.9141924,5.91121674
52.9327782,4.05302429
52.951364,5.19579697
52.9699498,3.33954239
52.9885356,1.48424911
53.0071214,-3.37007141
53.0257072,8.77656937
53.044293,7.92418289
53.0628788,2.07275963
53.0814646,7.2223053
53.1000504,-5.62718201
53.1186362,-5.47570229
53.137222,6.42547226
53.1558078,11.3276138
53.1743936,4.23072243
53.1929794,3.13479996
53.2115652,6.03984261
53.230151,-5.05414581
53.2487368,1.85282898
53.2673226,1.76077652
53.2859084,23.6696854
53.3044942,14.579567
53.32308,5.49041367
53.3416658,9.40222549
53.3602516,11.3150063
53.3788374,5.22875214
53.3974232,17.1434669
53.416009,3.0591507
53.4345948,10.9757996
53.4531806,4.89341736
53.4717664,17.8120003
53.4903522,2.73154831
53.508938,10.6520691
53.5275238,2.57355118
53.5461096,-1.5039978
53.5646954,13.4194221
53.5832812,2.34381104
53.601867,-0.730838776
53.6204528,1.19548416
53.6390386,3.12277222
53.6576244,7.05102539
53.6762102,17.9802475
53.694796,4.91043854
53.7133818,4.8415947
53.7319676,0.773715973
53.7505534,8.70680618
53.7691392,7.64086533
53.787725,1.57588959
53.8063108,9.51188278
53.8248966,4.44884109
53.8434824,12.3867683
53.8620682,17.3256607
53.880654,-0.734477997
53.8992398,9.20634842
53.9178256,16.1481438
53.9364114,21.0909081
53.9549972,-1.96536255
53.973583,0.97933197
53.9921688,15.9249954
54.0107546,13.8716278
54.0293404,11.8192253
54.0479262,3.76779175
54.066512,12.7173233
54.0850978,22.66782
54.1036836,12.6192894
54.1222694,10.5717201
54.1408552,18.5251236
54.159441,8.47949219
54.1780268,10.4348259
54.1966126,13.3911285
54.2151984,6.3483963
54.2337842,2.306633
54.25237,-4.73416138
54.2709558,17.2260094
54.2895416,-4.81285477
54.3081274,7.14925003
54.3267132,6.11232376
54.345299,14.0763626
54.3638848,7.04137039
54.3824706,6.00734329
54.4010564,5.97428513
54.4196422,17.9421921
54.438228,5.91106796
54.4568138,0.880908966
54.4753996,2.8517189
54.4939854,-1.17650223
54.5125712,0.796237946
54.531157,-9.23004913
54.5497428,2.74462891
54.5683286,6.72027206
54.5869144,1.69688797
54.6055002,6.67446518
54.624086,-4.34698868
54.6426718,12.6325264
54.6612576,10.6130066
54.6798434,0.594455719
54.6984292,2.57686996
54.717015,4.56025314
54.7356008,-3.45539856
54.7541866,1.52991867
54.7727724,7.51620483
54.7913582,1.50345612
54.809944,6.49167252
54.8285298,6.48085785
54.8471156,-0.528987885
54.8657014,6.4621315
54.8842872,1.454216
54.902873,15.4472694
54.9214588,0.441291809
54.9400446,-0.563720703
54.9586304,-5.56776428
54.9772162,-0.647827148
54.995802,5.2730751
55.0143878,-2.80505753
55.0329736,-0.882217407
55.0515594,14.041584
55.0701452,3.96635818
55.088731,6.89209747
55.1073168,5.81880188
55.1259026,5.74647522
55.1444884,4.67511368
55.1630742,1.60472107
55.18166,1.53529739
55.2002458,4.46683884
55.2188316,6.3993454
55.2374174,17.3328209
55.2560032,9.26726532
55.274589,11.2026749
55.2931748,-5.86094666
55.3117606,5.07639694
55.3303464,23.0147095
55.3489322,-5.04601288
55.367518,5.8942337
55.3861038,2.8354454
55.4046896,9.77762604
55.4232754,9.72077179
55.4418612,11.6648865
55.460447,14.6099701
55.4790328,12.5560188
55.4976186,17.5030327
55.5162044,17.4510155
55.5347902,18.3999672
55.553376,15.349884
55.5719618,10.3007698
55.5905476,3.2526207
55.6091334,16.2054405
55.6277192,7.15922546
55.646305,9.11397934
55.6648908,-3.93030167
55.6834766,1.02638626
55.7020624,12.9840393
55.7206482,3.94266129
55.739234,8.9022522
55.7578198,5.86280823
55.7764056,19.8243294
55.7949914,2.78681946
55.8135772,-4.24972153
55.832163,3.71470261
55.8507488,7.68009186
55.8693346,-4.35354614
55.8879204,4.61377716
55.9065062,6.58207321
55.925092,-4.44866943
55.9436778,6.52156067
55.9622636,0.49275589
55.9808494,14.4649162
55.9994352,9.4380455
56.018021,2.41213989
56.0366068,-3.61279678
56.0551926,-2.63676453
56.0737784,9.34023285
56.0923642,21.3181953
56.11095,10.2971306
56.1295358,19.2770271
56.1481216,-4.74210739
56.1667074,6.23972702
56.1852932,-7.77747345
56.203879,2.20629501
56.2224648,2.19102859
56.2410506,1.17673111
56.2596364,3.16340256
56.2782222,8.15103912
56.296808,-0.860359192
56.3153938,7.12921143
56.3339796,3.11974716
56.3525654,-6.88874817
56.3711512,6.10372543
56.389737,5.09716415
56.4083228,-5.90842819
56.4269086,-0.91305542
56.4454944,0.0832862854
56.4640802,-2.91940689
56.482666,1.07886887
56.5012518,6.07810974
56.5198376,4.07831955
56.5384234,-2.92050552
56.5570092,3.08163834
56.575595,-2.91525269
56.5941808,5.08882523
56.6127666,2.09387207
56.6313524,-0.900115967
56.6499382,10.1068611
56.668524,6.11481094
56.6871098,8.12372208
56.7056956,0.133602142
56.7242814,-2.85554886
56.7428672,0.156265259
56.761453,-5.83095169
56.7800388,-1.82379913
56.7986246,7.18432236
56.8172104,-0.806587219
56.8357962,-9.79653168
56.854382,8.2144928
56.8729678,-0.773517609
56.8915536,0.239437103
56.9101394,4.25336456
56.9287252,-4.73174667
56.947311,2.28411484
56.9658968,-3.69906235
56.9844826,-2.68126678
57.0030684,-7.66250992
57.0216542,4.3572197
57.04024,-2.62208557
57.0588258,8.39957428
57.0774116,2.42220306
57.0959974,9.44580078
57.1145832,1.47036362
57.133169,6.49589157
57.1517548,2.52238846
57.1703406,1.54985428
57.1889264,10.5782852
57.2075122,10.6076851
57.226098,4.63805008
57.2446838,12.669384
57.2632696,1.70168304
57.2818554,0.734951019
57.3004412,13.7691841
57.319027,15.8043861
57.3376128,12.8405571
57.3561986,10.8776932
57.3747844,24.9157944
57.3933702,5.9548645
57.411956,11.9949036
57.4305418,8.03590775
57.4491276,14.0778809
57.4677134,7.12081909
57.4862992,1.16472244
57.504885,-0.790401459
57.5234708,-5.74456406
57.5420566,-0.874633789
57.5606424,4.99626541
57.5792282,10.8681297
57.597814,12.740963
57.6163998,8.61476135
57.6349856,14.4895287
57.6535714,5.36526489
57.6721572,18.2419662
57.690743,28.1196327
57.7093288,35.9982681
57.7279146,33.8778725
57.7465004,20.7584419
57.7650862,22.6399765
57.783672,28.5224838
57.8022578,14.4059525
57.8208436,16.2903938
57.8394294,43.1757965
57.8580152,35.0621719
57.876601,42.9495087
57.8951868,32.8378181
57.9137726,27.7270927
57.9323584,33.6173325
57.9509442,47.5085411
57.96953,65.4007111
57.9881158,110.293854
58.0067016,115.187973
58.0252874,100.083046
58.0438732,92.9790955
58.062459,92.8760986
58.0810448,72.7740784
58.0996306,80.673027
58.1182164,85.572937
58.1368022,86.4738159
58.155388,107.375664
58.1739738,93.2784805
58.1925596,109.182266
58.2111454,88.0870056
58.2297312,74.9927216
58.248317,79.8994064
58.2669028,71.8070526
58.2854886,54.7156754
58.3040744,52.6252594
58.3226602,38.5358124
58.341246,43.4473305
58.3598318,24.3598137
58.3784176,41.2732697
58.3970034,44.1876869
58.4155892,30.1030769
58.434175,40.0194283
58.4527608,13.9367523
58.4713466,9.8550415
58.4899324,14.7742958
58.5085182,7.69451904
58.527104,11.6157074
58.5456898,-7.46213531
58.5642756,4.46099091
58.5828614,14.3850822
58.6014472,12.3101425
58.620033,11.2361679
58.6386188,-4.83684158
58.6572046,0.0911178589
58.6757904,-7.97995377
58.6943762,0.8659935
58.712962,1.7129097
58.7315478,2.56079102
58.7501336,-6.59035873
58.7687194,4.25946045
58.7873052,6.11024475
58.805891,5.96199417
58.8244768,-0.185287476
58.8430626,13.668396
58.8616484,31.5230522
58.8802342,38.3786697
58.89882,35.2352562
58.9174058,43.0928116
58.9359916,64.9513321
58.9545774,59.8108215
58.9731632,73.6712799
58.991749,51.5326996
59.0103348,44.3950882
59.0289206,60.2584457
59.0475064,69.1227722
59.0660922,93.98806
59.084678,87.8543243
59.1032638,107.721542
59.1218496,117.589737
59.1404354,96.4588928
59.1590212,63.3290253
59.177607,77.200119
59.1961928,91.0721817
59.2147786,73.9452057
59.2333644,55.8192024
59.2519502,84.6941681
59.270536,43.5700951
59.2891218,50.4469948
59.3077076,63.3248596
59.3262934,45.2036896
59.3448792,22.0834885
59.363465,37.9642525
59.3820508,25.8459854
59.4006366,21.7286873
59.4192224,2.61235428
59.4378082,3.49698639
59.456394,3.38258743
59.4749798,26.2691574
59.4935656,-4.8433075
59.5121514,-1.95480347
59.5307372,5.93466568
59.549323,-0.17489624
59.5679088,-0.283493042
59.5864946,-2.39112091
59.6050804,-6.49778366
59.6236662,-1.60347748
59.642252,-6.70820236
59.6608378,-2.82880402
59.6794236,0.0515594482
59.6980094,3.93289185
59.7165952,2.81519318
59.735181,-1.30154037
59.7537668,-4.41730881
59.7723526,-2.53210831
59.7909384,14.3540611
59.8095242,15.2411957
59.82811,-5.87070084
59.8466958,-13.9816322
59.8652816,6.44118881
59.8838674,1.86497498
59.9024532,-5.71026993
59.921039,4.7154541
59.9396248,-5.85785675
59.9582106,-9.43020248
59.9767964,8.99842453
59.9953822,-4.57198715
60.013968,-7.1414299
60.0325538,-7.87400818
