'y-axis saved as y
'x,ML_Wallace_03012020_1_NN_1_ZrP_900CCrucible_5-60_4min_BkgSubtracted.raw_1
5,-22.2261353
5.0185858,-6.70779419
5.0371716,38.811676
5.0557574,-16.6677246
5.0743432,40.8540344
5.092929,38.3769226
5.1115148,63.9009705
5.1301006,12.4261169
5.1486864,-21.0475769
5.1672722,-15.5361633
5.185858,33.9764099
5.2044438,12.4900818
5.2230296,-5.99505615
5.2416154,20.5209045
5.2602012,-2.9619751
5.278787,-6.44372559
5.2973728,25.0756836
5.3159586,18.5961914
5.3345444,32.1178894
5.3531302,34.640686
5.371716,19.1646423
5.3903018,6.68972778
5.4088876,31.2159729
5.4274734,4.74334717
5.4460592,-22.7281494
5.464645,7.80148315
5.4832308,25.3322754
5.5018166,42.8642273
5.5204024,24.3972778
5.5389882,-9.06851196
5.557574,16.4668274
5.5761598,9.00332642
5.5947456,-1.45904541
5.6133314,-9.92028809
5.6319172,0.619628906
5.650503,34.1606445
5.6690888,-28.2971497
5.6876746,12.2461548
5.7062604,-19.2093811
5.7248462,-15.8072815
5.743432,-12.4040527
5.7620178,14.0003357
5.7806036,-64.5941467
5.7991894,-10.1874695
5.8177752,2.2203064
5.836361,13.6292419
5.8549468,37.0393372
5.8735326,13.450531
5.8921184,-0.137115479
5.9107042,-12.7236023
5.92929,-24.30896
5.9478758,22.1068115
5.9664616,-23.4762878
5.9850474,18.9417725
6.0036332,24.3609619
6.022219,5.78128052
6.0408048,12.2027588
6.0593906,33.6253662
6.0779764,40.0491333
6.0965622,21.473999
6.115148,8.90005493
6.1337338,-4.67279053
6.1523196,24.7555237
6.1709054,32.184967
6.1894912,31.6155396
6.208077,26.0472717
6.2266628,-3.51986694
6.2452486,71.9141541
6.2638344,0.349304199
6.2824202,17.7855835
6.301006,8.22299194
6.3195918,-5.33843994
6.3381776,-0.898742676
6.3567634,46.5421143
6.3753492,22.9841003
6.393935,-23.5727844
6.4125208,8.87145996
6.4311066,-2.68313599
6.4496924,-3.23660278
6.4682782,-4.78890991
6.486864,9.65991211
6.5054498,-15.8901367
6.5240356,24.5609741
6.5426214,-8.98681641
6.5612072,-10.5334167
6.579793,-9.07891846
6.5983788,-1.6232605
6.6169646,3.83352661
6.6355504,20.2914734
6.6541362,16.7505493
6.672722,-19.7892456
6.6913078,-10.3278809
6.7098936,12.134613
6.7284794,12.5982361
6.7470652,36.0630035
6.765651,11.5289154
6.7842368,14.9959564
6.8028226,1.4641571
6.8214084,-15.0665131
6.8399942,-8.90408325
6.85858,-1.74052429
6.8771658,8.42419434
6.8957516,10.5900269
6.9143374,5.75701904
6.9329232,-9.07485962
6.951509,-8.90559387
6.9700948,-4.73518372
6.9886806,22.4363556
7.0072664,-12.3909607
7.0258522,-2.21714783
7.044438,0.957824707
7.0630238,9.13392639
7.0816096,6.31115723
7.1001954,-0.510467529
7.1187812,-4.33094788
7.137367,-4.15028381
7.1559528,15.0315094
7.1745386,-16.785553
7.1931244,-13.6014709
7.2117102,6.31820679
7.230296,-0.760986328
7.2488818,-9.83903503
7.2674676,-4.91593933
7.2860534,-2.99171448
7.3046392,2.93365479
7.323225,19.8601532
7.3418108,-0.212188721
7.3603966,-1.28340149
7.3789824,10.6465302
7.3975682,6.57759094
7.416154,-13.4902039
7.4347398,-6.31015015
7.4533256,19.871048
7.4719114,-9.94662476
7.4904972,-2.76315308
7.509083,17.421463
7.5276688,-17.3927917
7.5462546,14.7940979
7.5648404,-13.017868
7.5834262,-2.82870483
7.602012,-1.63839722
7.6205978,4.55305481
7.6391836,-15.254364
7.6577694,15.9393616
7.6763552,-4.86576843
7.694941,0.330245972
7.7135268,-5.47261047
7.7321126,-8.27432251
7.7506984,-11.0749054
7.7692842,-11.8743439
7.78787,-10.9698944
7.8064558,-5.0643158
7.8250416,-7.15759277
7.8436274,-2.2497406
7.8622132,8.65927124
7.880799,-13.4305878
7.8993848,0.480682373
7.9179706,2.39309692
7.9365564,-25.6933441
7.9551422,5.22135925
7.973728,11.1371918
7.9923138,-18.9458313
8.0108996,-0.0277099609
8.0294854,2.89154053
8.0480712,-17.1880646
8.066657,12.7334747
8.0852428,0.656158447
8.1038286,-9.42002869
8.1224144,-1.49508667
8.1410002,5.43101501
8.159586,0.35824585
8.1781718,-20.7133789
8.1967576,10.2161255
8.2153434,8.14677429
8.2339292,5.0785675
8.252515,-11.9885101
8.2711008,-4.82817078
8.2896866,8.33329773
8.3082724,-5.50408936
8.3268582,26.659668
8.345444,14.8245697
8.3640298,-6.00939941
8.3826156,6.15776825
8.4012014,13.326088
8.4197872,-1.5044632
8.438373,3.66613007
8.4569588,-8.16213989
8.4755446,2.01072693
8.4941304,14.1847382
8.5127162,16.3598862
8.531302,0.536178589
8.5498878,7.71360016
8.5684736,-2.10782623
8.5870594,13.0718765
8.6056452,6.25272369
8.624231,7.43470764
8.6428168,31.617836
8.6614026,0.802101135
8.6799884,24.9875031
8.6985742,2.17404938
8.71716,2.36173248
8.7357458,-0.449447632
8.7543316,-0.259483337
8.7729174,6.93161774
8.7915032,17.1238556
8.810089,-1.68276215
8.8286748,-18.4882431
8.8472606,2.52472687
8.8658464,12.5388412
8.8844322,-6.44590759
8.903018,15.570488
8.9216038,-4.41197968
8.9401896,6.60668945
8.9587754,17.6264954
8.9773612,9.64744568
8.995947,-4.33046722
9.0145328,15.6927643
9.0331186,35.7171326
9.0517044,-4.25736237
9.0702902,-5.23071289
9.088876,1.79707336
9.1074618,16.8259964
9.1260476,14.8560638
9.1446334,3.88726807
9.1632192,7.91960907
9.181805,25.9530945
9.2003908,14.9877167
9.2189766,34.0234833
9.2375624,-2.93962097
9.2561482,10.0984268
9.274734,32.1376038
9.2933198,15.1779251
9.3119056,10.2193832
9.3304914,6.26198578
9.3490772,7.3057251
9.367663,-5.6493988
9.3862488,4.39661407
9.4048346,17.4437714
9.4234204,5.49207306
9.4420062,12.5415039
9.460592,12.5920792
9.4791778,19.6437988
9.4977636,34.6966476
9.5163494,28.7506409
9.5349352,-10.1942215
9.553521,11.8620529
9.5721068,15.9194641
9.5906926,0.978012085
9.6092784,9.03770447
9.6278642,19.0985336
9.64645,20.1605072
9.6650358,12.2236176
9.6836216,25.2878647
9.7022074,19.3532486
9.7207932,9.41977692
9.739379,-10.5125504
9.7579648,35.5562515
9.7765506,23.6261978
9.7951364,7.69728851
9.8137222,15.7695084
9.832308,-2.15712738
9.8508938,-4.08261871
9.8694796,-9.0069809
9.8880654,11.0698013
9.9066512,-6.85227203
9.925237,7.22679138
9.9438228,5.30699158
9.9624086,15.3883286
9.9809944,5.47080994
9.9995802,-11.4455719
10.018166,7.63919067
10.0367518,-2.27490997
10.0553376,3.81212616
10.0739234,2.90029907
10.0925092,2.98961639
10.111095,-8.91992188
10.1296808,-0.828330994
10.1482666,16.2644043
10.1668524,-11.641716
10.1854382,3.45329285
10.204024,21.5494461
10.2226098,5.64674377
10.2411956,12.7451782
10.2597814,19.8447495
10.2783672,11.9454575
10.296953,10.0473099
10.3155388,13.1502991
10.3341246,21.2544327
10.3527104,20.3596954
10.3712962,15.4661102
10.389882,16.5736542
10.4084678,23.6823425
10.4270536,8.79216766
10.4456394,-11.0968628
10.4642252,-3.98475647
10.482811,1.12848663
10.5013968,16.2428741
10.5199826,4.35839844
10.5385684,-0.524940491
10.5571542,-11.407135
10.57574,32.7118073
10.5943258,-1.16811371
10.6129116,12.9531097
10.6314974,2.07546997
10.6500832,14.1989746
10.668669,5.32361603
10.6872548,-0.550605774
10.7058406,-8.4236908
10.7244264,-10.2956314
10.7430122,-5.16750336
10.761598,-3.0382309
10.7801838,-2.90782928
10.7987696,11.2237167
10.8173554,5.35640717
10.8359412,12.4902344
10.854527,2.62519836
10.8731128,9.76129913
10.8916986,11.8985443
10.9102844,2.0369339
10.9288702,7.17645264
10.947456,4.31711578
10.9660418,31.4589157
10.9846276,39.60186
11.0032134,-5.25405884
11.0217992,-12.1088409
11.040385,14.0375214
11.0589708,-4.81497955
11.0775566,-2.66633606
11.0961424,0.483436584
11.1147282,21.6343536
11.133314,9.7864151
11.1518998,22.9396133
11.1704856,2.09394836
11.1890714,19.2494202
11.2076572,-6.59396362
11.226243,0.563789368
11.2448288,14.7226868
11.2634146,31.8827209
11.2820004,-4.95610809
11.3005862,15.2062073
11.319172,-9.63034058
11.3377578,-5.46575165
11.3563436,-2.30001831
11.3749294,-5.13314819
11.3935152,6.0348587
11.412101,21.20401
11.4306868,0.374298096
11.4492726,18.545723
11.4678584,10.7182922
11.4864442,9.89199829
11.50503,16.0668411
11.5236158,-17.7571716
11.5422016,15.4199524
11.5607874,6.59822083
11.5793732,25.777626
11.597959,3.95816803
11.6165448,-2.86014557
11.6351306,5.32267761
11.6537164,-4.49336243
11.6723022,4.69174194
11.690888,14.8779755
11.7094738,-5.93463898
11.7280596,14.2538757
11.7466454,19.4435425
11.7652312,21.6343384
11.783817,-2.17372131
11.8024028,15.0193558
11.8209886,20.2135696
11.8395744,2.40892792
11.8581602,10.605423
11.876746,13.8030624
11.8953318,19.0018311
11.9139176,-4.79824829
11.9325034,-4.59719849
11.9510892,15.6049957
11.969675,-3.19167328
11.9882608,-9.98719788
12.0068466,4.17054749
12.0254324,8.32942963
12.0440182,1.48945618
12.062604,10.6506195
12.0811898,11.8129196
12.0997756,5.97636414
12.1183614,35.1409454
12.1369472,16.3066711
12.155533,9.473526
12.1741188,9.64152527
12.1927046,-9.18933105
12.2112904,-6.0190506
12.2298762,6.15236664
12.248462,-9.67507935
12.2670478,3.49861908
12.2856336,14.6734619
12.3042194,-0.150566101
12.3228052,30.0265503
12.341391,0.204803467
12.3599768,12.384201
12.3785626,17.5647354
12.3971484,15.7464066
12.4157342,7.92922211
12.43432,7.11317444
12.4529058,2.29826355
12.4714916,3.48449707
12.4900774,4.67186737
12.5086632,7.86038208
12.527249,2.05002594
12.5458348,19.2408218
12.5644206,-0.567253113
12.5830064,4.62581635
12.6015922,4.82002258
12.620178,15.0153732
12.6387638,10.2118607
12.6573496,12.4094849
12.6759354,5.60824585
12.6945212,1.80815125
12.713107,10.009201
12.7316928,-0.788619995
12.7502786,11.4147034
12.7688644,-9.38082886
12.7874502,-15.2098465
12.806036,11.9622803
12.8246218,-9.86445618
12.8432076,-3.69004822
12.8617934,-3.51450348
12.8803792,10.662178
12.898965,25.840004
12.9175508,-0.981033325
12.9361366,4.19906616
12.9547224,36.3803101
12.9733082,-2.43730927
12.991894,-2.25379181
13.0104798,10.9308701
13.0290656,12.1166687
13.0476514,8.30360413
13.0662372,12.491684
13.084823,5.68090057
13.1034088,4.87125397
13.1219946,7.06275177
13.1405804,5.25538635
13.1591662,-6.55083466
13.177752,14.6440735
13.1963378,-6.15986633
13.2149236,-7.962677
13.2335094,-4.76434326
13.2520952,6.43512726
13.270681,10.6357422
13.2892668,4.8374939
13.3078526,22.0403824
13.3264384,33.2444153
13.3450242,0.449584961
13.36361,12.6558914
13.3821958,10.8633423
13.4007816,22.0719299
13.4193674,21.2816544
13.4379532,2.49252319
13.456539,15.7045288
13.4751248,-14.0823212
13.4937106,7.13196564
13.5122964,-0.652610779
13.5308822,7.56394958
13.549468,1.78165436
13.5680538,10.0004959
13.5866396,10.2204819
13.6052254,14.4416046
13.6238112,18.6638641
13.642397,-2.11273193
13.6609828,-8.88819122
13.6795686,2.14968109
13.6981544,8.18869019
13.7167402,-1.77116394
13.735326,-5.72987366
13.7539118,-3.68744659
13.7724976,34.3561249
13.7910834,-12.5991669
13.8096692,21.4466782
13.828255,14.49366
13.8468408,10.5417862
13.8654266,23.5910568
13.8840124,16.6414566
13.9025982,3.69300079
13.921184,3.74568939
13.9397698,5.79950714
13.9583556,1.8544693
13.9769414,23.9105759
13.9955272,19.9678116
14.014113,23.0261917
14.0326988,18.0857162
14.0512846,43.1463776
14.0698704,35.2081757
14.0884562,39.2711105
14.107042,30.3351898
14.1256278,14.4004059
14.1442136,41.4667664
14.1627994,29.5342636
14.1813852,23.6028976
14.199971,31.6726685
14.2185568,33.7435837
14.2371426,8.81564331
14.2557284,24.8888321
14.2743142,0.963165283
14.2929,9.03864288
14.3114858,5.11524963
14.3300716,11.1930008
14.3486574,9.27189636
14.3672432,-5.64807892
14.385829,4.43309784
14.4044148,4.51540375
14.4230006,13.5988541
14.4415864,21.6834412
14.4601722,3.76916504
14.478758,7.85603333
14.4973438,-6.05596161
14.5159296,20.0331879
14.5345154,12.1234741
14.5531012,-4.78510284
14.571687,-7.6925354
14.5902728,3.40116882
14.6088586,5.49600983
14.6274444,2.59199524
14.6460302,20.6891174
14.664616,5.7873764
14.6832018,4.88677979
14.7017876,4.98731995
14.7203734,1.08899689
14.7389592,-3.80818176
14.757545,7.29577637
14.7761308,-2.59912109
14.7947166,9.5071106
14.8133024,2.61448669
14.8318882,5.7230072
14.850474,-5.16733551
14.8690598,-2.05654144
14.8876456,6.05539703
14.9062314,13.1684723
14.9248172,15.2826843
14.943403,10.3980331
14.9619888,-10.4854736
14.9805746,-9.49464417
14.9991604,14.4973297
15.0177462,0.490440369
15.036332,-2.51530457
15.0549178,4.48008728
15.0735036,-2.52338409
15.0920894,1.47428894
15.1106752,10.4730988
15.129261,-4.52695465
15.1478468,22.4741287
15.1664326,16.4763565
15.1850184,-8.5202713
15.2036042,11.48423
15.22219,-8.51012421
15.2407758,6.49666595
15.2593616,2.5045929
15.2779474,8.51365662
15.2965332,-8.47614288
15.315119,14.535202
15.3337048,6.54768372
15.3522906,-3.43869019
15.3708764,1.57606506
15.3894622,1.59197235
15.408048,9.60900879
15.4266338,30.6271896
15.4452196,0.646507263
15.4638054,7.6669693
15.4823912,-3.31143188
15.500977,9.71130371
15.5195628,8.73518372
15.5381486,13.7602005
15.5567344,7.78635406
15.5753202,4.81365204
15.593906,4.84208679
15.6124918,14.8716583
15.6310776,-7.09762573
15.6496634,11.934227
15.6682492,-4.03277588
15.686835,2.0013504
15.7054208,8.03662109
15.7240066,-0.926963806
15.7425924,2.11058807
15.7611782,15.1492767
15.779764,-5.8108902
15.7983498,-1.76992035
15.8169356,-0.727813721
15.8355214,0.315429688
15.8541072,15.3598175
15.872693,3.40534973
15.8912788,9.45201111
15.9098646,16.4998169
15.9284504,15.5487671
15.9470362,12.5988464
15.965622,16.6500702
15.9842078,-4.29756165
16.0027936,-4.2440567
16.0213794,1.81058502
16.0399652,-1.13363647
16.058551,-3.07671356
16.0771368,11.9813461
16.0957226,4.04055023
16.1143084,4.10089111
16.1328942,4.16236877
16.15148,-8.77501678
16.1700658,14.2887421
16.1886516,8.35364532
16.2072374,12.4196777
16.2258232,19.4868546
16.244409,9.55517578
16.2629948,15.6246262
16.2815806,-6.30477905
16.3001664,7.76696014
16.3187522,0.839828491
16.337338,16.9138489
16.3559238,5.98899841
16.3745096,29.0652924
16.3930954,11.1427231
16.4116812,0.221290588
16.430267,10.3010025
16.4488528,10.3818512
16.4674386,10.4638443
16.4860244,-8.45302582
16.5046102,0.631240845
16.523196,1.71665192
16.5417818,19.8031998
16.5603676,13.8908844
16.5789534,12.9797134
16.5975392,10.0696793
16.616125,-3.83921814
16.6347108,22.2530289
16.6532966,5.34641266
16.6718824,18.4409332
16.6904682,0.536598206
16.709054,-8.36660004
16.7276398,-2.42528534
16.7462256,8.51717377
16.7648114,7.46076965
16.7833972,8.40550995
16.801983,19.351387
16.8205688,1.29840088
16.8391546,14.2465515
16.8577404,21.1958466
16.8763262,15.1462784
16.894912,1.09785461
16.9134978,22.0505676
16.9320836,12.0044174
16.9506694,38.9594116
16.9692552,16.9155426
16.987841,16.8728104
17.0064268,1.83122253
17.0250126,-3.20922852
17.0435984,3.75145721
17.0621842,13.7132874
17.08077,15.6762543
17.0993558,3.6403656
17.1179416,3.60560608
17.1365274,7.5719986
17.1551132,13.5395203
17.173699,33.5081863
17.1922848,9.4779892
17.2108706,21.4489365
17.2294564,14.4210205
17.2480422,0.394241333
17.266628,8.36859894
17.2852138,2.34410095
17.3037996,17.3207474
17.3223854,19.2985229
17.3409712,23.2774429
17.359557,17.2575073
17.3781428,29.2387009
17.3967286,11.2210464
17.4153144,0.204521179
17.4339002,7.18914032
17.452486,4.17489624
17.4710718,24.1617889
17.4896576,13.149826
17.5082434,16.1389999
17.5268292,32.1293182
17.545415,9.12077332
17.5640008,21.1133652
17.5825866,12.1070938
17.6011724,8.10196686
17.6197582,6.09798431
17.638344,7.09513092
17.6569298,1.09342194
17.6755156,11.0928574
17.6941014,32.0934219
17.7126872,21.0951309
17.731273,15.0979843
17.7498588,15.1019669
17.7684446,22.1070938
17.7870304,7.11336517
17.8056162,17.1207733
17.824202,9.12931824
17.8427878,-11.8610001
17.8613736,3.14982605
17.8799594,1.16178894
17.8985452,5.17489624
17.917131,12.1891403
17.9357168,11.2045212
17.9543026,6.22103882
17.9728884,7.23870087
17.9914742,-2.74249268
18.01006,5.27744293
18.0286458,8.29852295
18.0472316,0.320747375
18.0658174,-1.65589905
18.0844032,14.3685989
18.102989,-6.60575867
18.1215748,3.42102051
18.1401606,11.4489365
18.1587464,12.4779892
18.1773322,0.50818634
18.195918,-1.46047974
18.2145038,-1.4280014
18.2330896,0.605606079
18.2516754,-1.3596344
18.2702612,21.6762543
18.288847,13.7132874
18.3074328,0.751457214
18.3260186,1.79077148
18.3446044,0.831222534
18.3631902,-4.12718964
18.381776,16.9155426
18.4003618,20.9594116
18.4189476,-6.99558258
18.4375334,15.0505676
18.4561192,-1.90214539
18.474705,-0.853721619
18.4932908,-0.804153442
18.5118766,19.2465515
18.5304624,14.2984009
18.5490482,0.351387024
18.567634,1.40550995
18.5862198,29.4607697
18.6048056,9.51717377
18.6233914,3.57471466
18.6419772,-8.36660004
18.660563,-8.4150238
18.6791488,11.5376892
18.6977346,19.491539
18.7163204,21.4465256
18.7349062,-4.59734344
18.753492,11.3599319
18.7720778,14.3183365
18.7906636,8.27789307
18.8092494,17.2385788
18.8278352,8.20040894
18.846421,11.1633759
18.8650068,-9.87252045
18.8835926,0.0927276611
18.9021784,8.05911255
18.9207642,2.02664185
18.93935,10.9953003
18.9579358,27.9651108
18.9765216,15.9360504
18.9951074,-4.09186554
19.0136932,2.88135529
19.032279,1.85572052
19.0508648,8.83122253
19.0694506,6.80786133
19.0880364,15.7856445
19.1066222,22.7645645
19.125208,-5.25537872
19.1437938,17.7258224
19.1623796,1.7081604
19.1809654,2.69163513
19.1995512,8.67625427
19.218137,0.662010193
19.2367228,10.6489105
19.2553086,7.63694763
19.2738944,14.6261215
19.2924802,12.6164322
19.311066,2.60788727
19.3296518,3.60047913
19.3482376,13.5942154
19.3668234,16.5890884
19.3854092,14.5850983
19.403995,14.5822525
19.4225808,11.5805435
19.4411666,20.5799713
19.4597524,19.5805435
19.4783382,-3.4177475
19.496924,10.5850983
19.5155098,3.58908844
19.5340956,9.59421539
19.5526814,-0.399520874
19.5712672,11.6078873
19.589853,9.61643219
19.6084388,8.62612152
19.6270246,20.6369476
19.6456104,17.6489105
19.6641962,6.66201019
19.682782,3.67625427
19.7013678,8.69163513
19.7199536,11.7081604
19.7385394,10.7258224
19.7571252,6.74462128
19.775711,4.76456451
19.7942968,7.78564453
19.8128826,14.8078613
19.8314684,4.83122253
19.8500542,8.85572052
19.86864,0.881355286
19.8872258,4.90813446
19.9058116,-7.06394958
19.9243974,16.9651108
19.9429832,25.9953003
19.961569,4.02664185
19.9801548,2.05911255
19.9987406,1.09272766
20.0173264,6.12747955
20.0359122,12.1633759
20.054498,8.20040894
20.0730838,23.2385788
20.0916696,13.2778854
20.1102554,-0.681663513
20.1288412,22.3599319
20.147427,20.4026566
20.1660128,3.44652557
20.1845986,23.491539
20.2031844,10.5376816
20.2217702,-6.4150238
20.240356,-8.36660004
20.2589418,-1.4076004
20.2775276,0.552528381
20.2961134,13.5138092
20.3146992,8.47621918
20.333285,-0.56022644
20.3518708,4.40446472
20.3704566,9.37030029
20.3890424,20.3372726
20.4076282,12.3053818
20.426214,9.27463531
20.4447998,-3.75497437
20.4633856,5.21656036
20.4819714,13.1892242
20.5005572,8.16303253
20.519143,1.13798523
20.5377288,-6.88592529
20.5563146,4.09130096
20.5749004,-2.930336
20.5934862,-0.950828552
20.612072,19.0298157
20.6306578,15.0116043
20.6492436,0.994529724
20.6678294,-1.02140808
20.6864152,0.963798523
20.705001,-2.04985809
20.7235868,-2.06237793
20.7421726,19.9262466
20.7607584,10.916008
20.7793442,-1.09309387
20.79793,11.8989487
20.8165158,3.89212799
20.8351016,5.88644409
20.8536874,5.8819046
20.8722732,11.8785019
20.890859,7.87624359
20.9094448,-7.12488556
20.9280306,-3.12486267
20.9466164,21.8762894
20.9652022,-3.12141418
20.983788,-0.117980957
21.0023738,20.8865967
21.0209596,-1.1076889
21.0395454,1.89916229
21.0581312,1.9071579
21.076717,18.9162903
21.0953028,7.92655945
21.1138886,2.93797302
21.1324744,2.95052338
21.1510602,4.96421051
21.169646,-0.0209579468
21.1882318,-2.00498962
21.2068176,15.0121155
21.2254034,-5.96963501
21.2439892,-7.95024872
21.262575,21.070282
21.2811608,7.09194183
21.2997466,-0.885246277
21.3183324,4.13869476
21.3369182,10.1637802
21.355504,9.19000244
21.3740898,16.2173691
21.3926756,11.2458725
21.4112614,16.2755127
21.4298472,7.3062973
21.448433,-5.66178131
21.4670188,16.3712769
21.4856046,7.40547943
21.5041904,4.44081879
21.5227762,-7.52270508
21.541362,-8.48508453
21.5599478,8.50752258
21.5785336,-2.49872589
21.5971194,7.49616241
21.6157052,21.4921875
21.634291,6.48935699
21.6528768,4.48766327
21.6714626,13.4871063
21.6900484,-2.51230621
21.7086342,2.48941803
21.72722,15.4922867
21.7458058,1.49628448
21.7643916,4.5014267
21.7829774,-4.49228668
21.8015632,-4.48486328
21.820149,5.5236969
21.8387348,0.533401489
21.8573206,2.54423523
21.8759064,3.55622101
21.8944922,4.56933594
21.913078,11.5835953
21.9316638,-2.40100861
21.9502496,-5.38446808
21.9688354,8.63320923
21.9874212,5.65202332
22.006007,19.6719818
22.0245928,6.69307709
22.0431786,15.7153168
22.0617644,11.7386856
22.0803502,7.76319885
22.098936,1.78885651
22.1175218,10.8156509
22.1361076,1.84358215
22.1546934,-2.12734985
22.1732792,2.90286255
22.191865,12.9342117
22.2104508,15.9667053
22.2290366,2.00033569
22.2476224,18.0351028
22.2662082,7.0710144
22.284794,8.10806274
22.3033798,8.14624786
22.3219656,9.18557739
22.3405514,-7.7739563
22.3591372,5.26764679
22.377723,-8.68960571
22.3963088,12.3542786
22.4148946,-12.6007004
22.4334804,17.4454651
22.4520662,26.4927673
22.470652,8.54121399
22.4892378,0.590789795
22.5078236,-5.35848236
22.5264094,-8.30662537
22.5449952,-7.27457428
22.563581,-1.24139404
22.5821668,-3.20706177
22.6007526,2.82839966
22.6193384,-8.13499451
22.6379242,10.9027557
22.65651,5.94163513
22.6750958,15.9816589
22.6936816,-0.977172852
22.7122674,-14.9348755
22.7308532,18.1085663
22.749439,8.15315247
22.7680248,3.19887543
22.7866106,7.24573517
22.8051964,3.29373169
22.8237822,-3.65712738
22.842368,16.3931503
22.8609538,7.44457245
22.8795396,15.4971313
22.8981254,-6.44917297
22.9167112,-2.39434052
22.935297,1.66163635
22.9538828,3.71875763
22.9724686,14.7770081
22.9910544,19.8364029
23.0096402,13.8969421
23.028226,-7.04138947
23.0468118,-5.97857666
23.0653976,40.0853806
23.0839834,10.1504745
23.1025692,15.2167053
23.121155,21.2840729
23.1397408,-8.64741516
23.1583266,1.42223358
23.1769124,17.4930191
23.1954982,3.56494904
23.214084,8.63801575
23.2326698,4.71222687
23.2512556,9.78757477
23.2698414,8.86405945
23.2884272,10.9416885
23.307013,16.0204544
23.3255988,11.1003571
23.3441846,9.18140411
23.3627704,4.26358795
23.3813562,10.3469086
23.399942,5.4313736
23.4185278,1.5169754
23.4371136,3.60371399
23.4556994,0.691596985
23.4742852,-8.21938324
23.492871,9.87078094
23.5114568,7.96207428
23.5300426,-0.945480347
23.5486284,16.1480942
23.5672142,15.2428131
23.5858,17.3386688
23.6043858,7.43566895
23.6229716,14.5338058
23.6415574,16.6330795
23.6601432,13.73349
23.678729,-6.16495514
23.6973148,-8.06225586
23.7159006,-5.14354706
23.7344864,15.7762985
23.7530722,11.6972809
23.771658,10.6194077
23.7902438,9.5426712
23.8088296,30.4670792
23.8274154,15.3926239
23.8460012,13.3193054
23.864587,20.2471313
23.8831728,16.1760941
23.9017586,40.1061935
23.9203444,17.0374374
23.9389302,16.9698181
23.957516,16.9033356
23.9761018,25.8379974
23.9946876,22.7737961
24.0132734,21.7107315
24.0318592,18.6488113
24.050445,34.588028
24.0690308,52.528389
24.0876166,30.4698792
24.1062024,37.4125214
24.1247882,18.3562927
24.143374,62.3012085
24.1619598,34.247261
24.1805456,28.194458
24.1991314,34.1427917
24.2177172,23.0922623
24.236303,17.0428696
24.2548888,27.9946213
24.2734746,9.9475174
24.2920604,13.9015427
24.3106462,10.8567123
24.329232,21.8130264
24.3478178,14.7704773
24.3664036,14.7290649
24.3849894,14.6887894
24.4035752,24.6496582
24.422161,30.6116638
24.4407468,19.5748062
24.4593326,29.539093
24.4779184,32.5045166
24.4965042,21.4710846
24.51509,22.4387894
24.5336758,38.4076309
24.5522616,30.3776169
24.5708474,19.3487396
24.5894332,21.3209991
24.608019,5.29440308
24.6266048,4.26894379
24.6451906,10.2446213
24.6637764,18.2214432
24.6823622,24.1994019
24.700948,9.17849731
24.7195338,-0.841262817
24.7381196,0.140113831
24.7567054,7.12262726
24.7752912,-10.8937149
24.793877,4.09107971
24.8124628,-13.9229813
24.8310486,18.0640945
24.8496344,8.05230713
24.8682202,-9.95834351
24.886806,8.03215027
24.9053918,10.0237808
24.9239776,24.0165558
24.9425634,-6.98953247
24.9611492,5.00551605
24.979735,12.001709
24.9983208,0.999038696
25.0169066,8.99750519
25.0354924,12.9971161
25.0540782,8.99786377
25.072664,4.99975586
25.0912498,-4.9972229
25.1098356,9.00694275
25.1284214,2.01225281
25.1470072,0.018699646
25.165593,12.0262833
25.1841788,15.0350037
25.2027646,2.04486847
25.2213504,9.05587006
25.2399362,1.06801605
25.258522,-10.9187012
25.2771078,19.0957184
25.2956936,-14.8887177
25.3142794,-5.87201691
25.3328652,6.14582062
25.351451,-9.83519745
25.3700368,5.18492126
25.3886226,4.20617676
25.4072084,19.2285767
25.4257942,-3.74788666
25.44438,6.2767868
25.4629658,6.30260468
25.4815516,9.32955933
25.5001374,1.35765839
25.5187232,-1.61310577
25.537309,12.4172668
25.5558948,3.44877625
25.5744806,3.48143005
25.5930664,-13.4847717
25.6116522,-2.48509979
25.630238,2.51570892
25.6488238,3.51766205
25.6674096,-7.47924805
25.6859954,9.52498627
25.7045812,5.53034973
25.723167,10.5368652
25.7417528,15.5445099
25.7603386,5.55329895
25.7789244,-0.436775208
25.7975102,12.574295
25.816096,11.5865021
25.8346818,17.5998459
25.8532676,3.61432648
25.8718534,-1.37004852
25.8904392,-4.35327911
25.909025,-4.33538055
25.9276108,3.68366241
25.9461966,-5.29615021
25.9647824,3.72516632
25.9833682,14.7476273
26.001954,14.7712326
26.0205398,9.79597473
26.0391256,-3.17814636
26.0577114,5.84886932
26.0762972,9.87702942
26.094883,-0.0936737061
26.1134688,2.93676758
26.1320546,-6.03166199
26.1506404,5.00106049
26.1692262,-7.96508789
26.187812,6.06990814
26.2063978,13.106041
26.2249836,0.143318176
26.2435694,1.18173218
26.2621552,1.22128296
26.280741,12.2619781
26.2993268,14.3038101
26.3179126,8.34677887
26.3364984,-9.60910797
26.3550842,6.43614197
26.37367,-0.517463684
26.3922558,8.53005981
26.4108416,3.57873535
26.4294274,2.62854004
26.4480132,-8.32051086
26.466599,13.731575
26.4851848,-11.2151947
26.5037706,-7.16083527
26.5223564,2.89467621
26.5409422,-8.04868317
26.559528,-12.9908981
26.5781138,24.0680237
26.5966996,0.128089905
26.6152854,1.18929291
26.6338712,11.2516327
26.652457,3.31511688
26.6710428,8.37973785
26.6896286,2.44550323
26.7082144,0.512397766
26.7268002,-0.419563293
26.745386,16.6496201
26.7639718,10.7199402
26.7825576,6.79139709
26.8011434,-0.136009216
26.8197292,-6.06227112
26.838315,-3.98739624
26.8569008,-5.91137695
26.8754866,-3.83422089
26.8940724,4.24407196
26.9126582,14.3235092
26.931244,4.40408325
26.9498298,1.48579407
26.9684156,4.56864166
26.9870014,-1.34736633
27.0055872,4.73777008
27.024173,0.824043274
27.0427588,4.91145325
27.0613446,-8
27.0799304,-5.0814743
27.0985162,8.8381958
27.117102,4.75900269
27.1356878,1.68095398
27.1542736,17.6040421
27.1728594,6.52826691
27.1914452,6.45362854
27.210031,-12.6198654
27.2286168,9.3077774
27.2472026,9.23656464
27.2657884,12.1664886
27.2843742,5.09754944
27.30296,2.02975464
27.3215458,6.96309662
27.3401316,-2.10242462
27.3587174,-3.16680145
27.3773032,2.7699585
27.395889,-6.29214478
27.4144748,11.6468964
27.4330606,13.5870743
27.4516464,7.52838898
27.4702322,11.4708481
27.488818,-0.58555603
27.5074038,10.3591843
27.5259896,7.30505371
27.5445754,2.2520752
27.5631612,2.20022583
27.581747,0.149520874
27.6003328,3.0999527
27.6189186,3.05152893
27.6375044,10.0042419
27.6560902,0.958091736
27.674676,22.9130859
27.6932618,9.86921692
27.7118476,9.82648468
27.7304334,32.7848969
27.7490192,36.7444458
27.767605,48.7051315
27.7861908,44.6669617
27.8047766,57.6299286
27.8233624,83.5940323
27.8419482,142.55928
27.860534,142.525665
27.8791198,198.493195
27.8977056,310.461853
27.9162914,317.431671
27.9348772,303.402618
27.953463,343.374695
27.9720488,268.3479
27.9906346,267.322266
28.0092204,226.297775
28.0278062,195.274414
28.046392,162.252197
28.0649778,137.23111
28.0835636,129.211182
28.1021494,143.192383
28.1207352,110.174713
28.139321,128.158203
28.1579068,164.142822
28.1764926,178.128571
28.1950784,156.115463
28.2136642,199.1035
28.23225,219.092682
28.2508358,187.082993
28.2694216,197.074432
28.2880074,188.067047
28.3065932,148.06076
28.325179,152.055634
28.3437648,153.051651
28.3623506,139.048798
28.3809364,163.047089
28.3995222,167.046524
28.418108,171.047089
28.4366938,167.048798
28.4552796,247.051651
28.4738654,299.055634
28.4924512,273.06076
28.511037,272.067047
28.5296228,235.074432
28.5482086,220.082993
28.5667944,195.092682
28.5853802,164.1035
28.603966,128.115463
28.6225518,93.1285706
28.6411376,77.1428146
28.6597234,104.158195
28.6783092,121.174713
28.696895,108.192375
28.7154808,132.211182
28.7340666,154.23111
28.7526524,198.252197
28.7712382,324.274414
28.789824,402.297791
28.8084098,489.322266
28.8269956,576.3479
28.8455814,584.374695
28.8641672,561.402588
28.882753,530.431641
28.9013388,444.461853
28.9199246,389.493195
28.9385104,327.525665
28.9570962,204.55928
28.975682,169.594025
28.9942678,106.629929
29.0128536,86.6669617
29.0314394,64.7051315
29.0500252,49.7444458
29.068611,45.7848969
29.0871968,44.8264847
29.1057826,21.8692169
29.1243684,47.9130859
29.1429542,16.9580917
29.16154,27.0042419
29.1801258,17.0515289
29.1987116,21.0999527
29.2172974,3.14952087
29.2358832,13.2002258
29.254469,5.2520752
29.2730548,2.30505371
29.2916406,7.35918427
29.3102264,10.414444
29.3288122,4.47084808
29.347398,5.52838898
29.3659838,3.58707428
29.3845696,0.646896362
29.4031554,4.70785522
29.4217412,-8.2300415
29.440327,10.8331985
29.4589128,-1.10242462
29.4774986,1.96309662
29.4960844,9.02975464
29.5146702,3.09754944
29.533256,1.16648865
29.5518418,1.23656464
29.5704276,5.3077774
29.5890134,1.38013458
29.6075992,-0.54637146
29.626185,17.5282669
29.6447708,7.60404205
29.6633566,5.68095398
29.6819424,7.75900269
29.7005282,-9.1618042
29.719114,-4.0814743
29.7376998,-8
29.7562856,5.01023865
29.7748714,10.0216141
29.7934572,12.0341263
29.812043,3.0477829
29.8306288,5.06257629
29.8492146,7.07850647
29.8678004,20.0955811
29.8863862,27.1137924
29.904972,19.1331482
29.9235578,9.15364075
29.9421436,9.17527008
29.9607294,16.1980362
29.9793152,10.2219467
29.997901,12.246994
30.0164868,8.27318573
30.0350726,20.3005142
30.0536584,28.3289795
30.0722442,0.358589172
30.09083,27.3893356
30.1094158,12.4212189
30.1280016,23.4542465
30.1465874,22.4884109
30.1651732,39.5237122
30.183759,40.5601578
30.2023448,41.5977402
30.2209306,56.636467
30.2395164,60.6763229
30.2581022,35.7173309
30.276688,41.7594681
30.2952738,23.8027496
30.3138596,26.847168
30.3324454,48.8927307
30.3510312,38.9394302
30.369617,28.9872665
30.3882028,36.0362396
30.4067886,19.0863571
30.4253744,35.137619
30.4439602,21.1900101
30.462546,31.2435455
30.4811318,10.2982254
30.4997176,1.35404205
30.5183034,21.4109955
30.5368892,17.4690857
30.555475,25.5283203
30.5740608,14.5886917
30.5926466,23.6501999
30.6112324,4.71285248
30.6298182,3.77664185
30.648404,0.841575623
30.6669898,4.90764618
30.6855756,3.97485352
30.7041614,1.04320526
30.7227472,-1.88731384
30.741333,10.1833191
30.7599188,10.2550812
30.7785046,15.3279877
30.7970904,-12.5979614
30.8156762,14.4772186
30.834262,20.5535431
30.8528478,10.631012
30.8714336,8.70960999
30.8900194,7.78936005
30.9086052,-3.12976074
30.927191,-2.04773712
30.9457768,13.0354233
30.9643626,9.11972046
30.9829484,-7.79483795
31.0015342,10.2917404
31.02012,11.3794632
31.0387058,6.46832275
31.0572916,11.5583191
31.0758774,21.6494598
31.0944632,0.741737366
31.113049,-0.164848328
31.1316348,12.9297104
31.1502206,17.0254059
31.1688064,22.1222382
31.1873922,37.2202148
31.205978,31.3193283
31.2245638,25.4195786
31.2431496,37.5209732
31.2617354,45.6235046
31.2803212,68.7271729
31.298907,63.8319855
31.3174928,88.9379349
31.3360786,85.0450287
31.3546644,113.153259
31.3732502,148.262634
31.391836,167.373138
31.4104218,173.484772
31.4290076,202.597565
31.4475934,182.711487
31.4661792,222.826569
31.484765,211.94278
31.5033508,167.06012
31.5219366,145.178589
31.5405224,131.298218
31.5591082,157.418976
31.577694,125.540886
31.5962798,69.6639328
31.6148656,85.7881165
31.6334514,70.9134369
31.6520372,64.0398941
31.670623,22.1674957
31.6892088,56.2962341
31.7077946,25.4261169
31.7263804,37.5571365
31.7449662,22.6892929
31.763552,30.8225861
31.7821378,36.9570236
31.8007236,25.0926018
31.8193094,29.2293167
31.8378952,15.3671722
31.856481,10.5061684
31.8750668,20.6463013
31.8936526,0.787574768
31.9122384,15.9299889
31.9308242,8.07354355
31.94941,-3.78176498
31.9679958,-6.63593292
31.9865816,-1.48896408
32.0051674,3.65914917
32.0237532,10.8083992
32.042339,-4.04121399
32.0609248,15.1103172
32.0795106,12.2629852
32.0980964,15.4167938
32.1166822,23.5717392
32.135268,-0.272174835
32.1538538,-2.11494827
32.1724396,-3.95658112
32.1910254,2.20292282
32.2096112,0.363567352
32.228197,1.52535248
32.2467828,5.68827438
32.2653686,10.8523369
32.2839544,-11.98246
32.3025402,1.18388367
32.321126,-1.64863586
32.3397118,-4.4800148
32.3582976,1.68974304
32.3768834,0.860645294
32.3954692,6.03268433
32.414055,20.2058601
32.4326408,6.38018036
32.4512266,-5.44436264
32.4698124,1.73223495
32.4883982,0.90996933
32.506984,10.0888443
32.5255698,4.26885986
32.5441556,7.45001602
32.5627414,-3.36769104
32.5813272,20.8157425
32.599913,2.00031662
32.6184988,4.18603134
32.6370846,3.37288284
32.6556704,9.56087494
32.6742562,21.7500038
32.692842,3.94027328
32.7114278,2.13168335
32.7300136,3.32423401
32.7485994,-10.4820786
32.7671852,-2.47380829
32.785771,5.53560257
32.8043568,4.54615402
32.8229426,0.557842255
32.8415284,14.5706711
32.8601142,5.5846405
32.8787,4.5997467
32.8972858,7.61599731
32.9158716,4.63338089
32.9344574,1.65190887
32.9530432,10.6715736
32.971629,7.692379
32.9902148,-0.285675049
33.0088006,9.73740768
33.0273864,-3.23836899
33.0459722,0.786994934
33.064558,8.81349564
33.0831438,12.8411407
33.1017296,-12.1300812
33.1203154,4.89984131
33.1389012,-3.06909943
33.157487,-5.03689957
33.1760728,21.9964409
33.1946586,9.03091812
33.2132444,1.06653595
33.2318302,-10.8967056
33.250416,5.14119339
33.2690018,1.18022919
33.2875876,0.220405579
33.3061734,9.26171875
33.3247592,14.3041763
33.343345,12.3477707
33.3619308,10.3925018
33.3805166,14.4383774
33.3991024,13.4853897
33.4176882,0.533542633
33.436274,14.5828323
33.4548598,4.63326263
33.4734456,4.68483353
33.4920314,12.737545
33.5106172,-1.20860672
33.529203,13.8463821
33.5477888,8.9025116
33.5663746,0.959777832
33.5849604,-9.98181534
33.6035462,-0.0271186829
33.622132,7.92871475
33.6407178,-1.11431122
33.6593036,12.8437996
33.6778894,17.8030548
33.6964752,6.76344681
33.715061,21.7249794
33.7336468,11.6876488
33.7522326,11.6514587
33.7708184,-8.3835907
33.7894042,11.5825005
33.80799,0.549728394
33.8265758,-12.4819031
33.8451616,0.476734161
33.8637474,18.4365082
33.8823332,33.3974266
33.900919,33.3594818
33.9195048,18.3226738
33.9380906,23.2870102
33.9566764,21.2524834
33.9752622,23.2190971
33.993848,32.1868477
34.0124338,28.1557388
34.0310196,37.1257706
34.0496054,37.0969429
34.0681912,38.069252
34.086777,33.0427017
34.1053628,33.017292
34.1239486,34.9930191
34.1425344,47.9698906
34.1611202,44.9478951
34.179706,42.9270439
34.1982918,41.9073296
34.2168776,35.8887558
34.2354634,17.8713226
34.2540492,55.8550262
34.272635,48.8398705
34.2912208,27.8258553
34.3098066,15.8129768
34.3283924,36.801239
34.3469782,29.7906418
34.365564,49.7811852
34.3841498,27.7728653
34.4027356,35.765686
34.4213214,9.75964737
34.4399072,31.7547455
34.458493,39.7509842
34.4770788,33.7483635
34.4956646,41.7468796
34.5142504,34.7465363
34.5328362,21.7473335
34.551422,30.7492714
34.5700078,24.752346
34.5885936,31.7565613
34.6071794,48.7619171
34.6257652,38.7684097
34.644351,34.7760429
34.6629368,27.7848167
34.6815226,36.7947273
34.7001084,29.8057785
34.7186942,16.8179703
34.73728,20.8313026
34.7558658,34.8457718
34.7744516,25.8613815
34.7930374,24.8781319
34.8116232,29.896019
34.830209,50.9150467
34.8487948,32.935215
34.8673806,33.9565239
34.8859664,38.9789696
34.9045522,20.0025558
34.923138,40.0272789
34.9417238,34.0531464
34.9603096,45.0801506
34.9788954,76.1082916
34.9974812,60.1375771
35.016067,57.1679993
35.0346528,78.1995621
35.0532386,81.2322617
35.0718244,85.266098
35.0904102,104.301086
35.108996,99.337204
35.1275818,124.374466
35.1461676,153.412857
35.1647534,124.4524
35.1833392,188.493073
35.201925,227.534897
35.2205108,230.57785
35.2390966,308.621948
35.2576824,406.667175
35.2762682,528.713562
35.294854,725.761047
35.3134398,910.809753
35.3320256,1104.8595
35.3506114,1247.9104
35.3691972,1161.96252
35.387783,1147.01575
35.4063688,1021.07007
35.4249546,946.12561
35.4435404,931.18219
35.4621262,697.23999
35.480712,591.298889
35.4992978,523.358948
35.5178836,372.420135
35.5364694,271.482452
35.5550552,205.545914
35.573641,155.610519
35.5922268,141.67627
35.6108126,109.743156
35.6293984,127.81118
35.6479842,76.8803406
35.66657,67.9506531
35.6851558,65.0220947
35.7037416,57.0946732
35.7223274,48.168396
35.7409132,38.2432556
35.759499,45.3192596
35.7780848,39.3964005
35.7966706,45.474678
35.8152564,39.5540962
35.8338422,39.634655
35.852428,29.7163544
35.8710138,29.7991905
35.8895996,36.8831711
35.9081854,13.9682846
35.9267712,23.0545425
35.945357,19.1419373
35.9639428,24.2304726
35.9825286,15.3201485
36.0011144,7.41096115
36.0197002,12.5029144
36.038286,2.5960083
36.0568718,15.690239
36.0754576,17.7856102
36.0940434,-0.11787796
36.1126292,14.9797707
36.131215,17.0785637
36.1498008,8.1784935
36.1683866,21.2795601
36.1869724,18.3817711
36.2055582,-5.51488113
36.224144,7.58960342
36.2427298,5.69523239
36.2613156,4.80199814
36.2799014,3.90990448
36.2984872,-6.9810524
36.317073,-2.95147705
36.3356588,11.0792389
36.3542446,9.11109543
36.3728304,3.14409256
36.3914162,21.1782265
36.410002,7.21350098
36.4285878,13.2499123
36.4471736,21.287468
36.4657594,13.3261604
36.4843452,11.3659897
36.502931,10.4069633
36.5215168,15.4490738
36.5401026,1.49232101
36.5586884,-0.463287354
36.5772742,12.5822411
36.59586,14.6289101
36.6144458,3.67671967
36.6330316,7.72566605
36.6516174,20.775753
36.6702032,10.8269806
36.688789,16.8793449
36.7073748,9.93284988
36.7259606,7.98749542
36.7445464,-4.95672226
36.7631322,1.10020447
36.781718,11.158268
36.8003038,9.21746826
36.8188896,1.27780914
36.8374754,-2.66070938
36.8560612,5.40191269
36.874647,17.4656754
36.8932328,11.5305748
36.9118186,-8.40338516
36.9304044,4.66379166
36.9489902,10.7321091
36.967576,2.80156708
36.9861618,-6.12783432
37.0047476,13.9439011
37.0233334,6.01677704
37.0419192,18.0907936
37.060505,0.16594696
37.0790908,6.24224472
37.0976766,-1.68032455
37.1162624,-10.6017494
37.1348482,6.47796249
37.153434,0.558815002
37.1720198,15.6408081
37.1906056,2.72393799
37.2091914,5.80820847
37.2277772,5.89361954
37.246363,-1.01983261
37.2649488,-3.93214035
37.2835346,10.1566849
37.3021204,1.24665451
37.3207062,10.3377609
37.339292,12.4300079
37.3578778,-4.47660446
37.3764636,9.61791992
37.3950494,-3.2864151
37.4136352,4.81039047
37.432221,17.9083366
37.4508068,8.00741959
37.4693926,15.1076431
37.4879784,-0.790996552
37.5065642,8.31150818
37.52515,-3.58485413
37.5437358,-8.48007202
37.5623216,4.45405579
37.5809074,-12.6106796
37.5994932,-2.67427063
37.618079,-1.73672485
37.6366648,12.2019577
37.6552506,12.1417847
37.6738364,6.08274841
37.6924222,7.02484894
37.711008,6.96809387
37.7295938,7.91247559
37.7481796,16.8579979
37.7667654,11.804657
37.7853512,4.75246048
37.803937,10.7014008
37.8225228,1.65147781
37.8411086,8.60269928
37.8596944,8.55505753
37.8782802,1.50855637
37.896866,12.463192
37.9154518,4.4189682
37.9340376,9.37588501
37.9526234,0.333942413
37.9712092,1.2931366
37.989795,19.2534714
38.0083808,8.21494675
38.0269666,5.1775589
38.0455524,6.14131165
38.0641382,12.106205
38.082724,11.0722389
38.1013098,-8.96059036
38.1198956,0.00772094727
38.1384814,4.97716904
38.1570672,0.947761536
38.175653,3.91949081
38.1942388,-5.10764313
38.2128246,-5.13363266
38.2314104,1.84151459
38.2499962,-0.182197571
38.268582,0.795227051
38.2871678,5.77379227
38.3057536,10.7534981
38.3243394,3.73434448
38.3429252,-0.283672333
38.361511,0.699451447
38.3800968,7.68371582
38.3986826,5.66911697
38.4172684,7.65566254
38.4358542,5.64334106
38.45444,1.632164
38.4730258,-2.37787628
38.4916116,7.61322403
38.5101974,16.6054649
38.5287832,-6.40115738
38.547369,6.5933609
38.5659548,13.5890198
38.5845406,8.58581543
38.6031264,17.5837555
38.6217122,7.58282852
38.640298,10.583046
38.6588838,18.5844002
38.6774696,8.58689499
38.6960554,17.5905304
38.7146412,5.59530258
38.733227,10.6012154
38.7518128,11.6082687
38.7703986,3.61645889
38.7889844,6.62579346
38.8075702,5.6362648
38.826156,3.64787292
38.8447418,13.6606216
38.8633276,32.674511
38.8819134,6.68954086
38.9004992,-5.29429245
38.919085,8.72301483
38.9376708,1.74146271
38.9562566,5.76105118
38.9748424,12.7817764
38.9934282,-1.19635773
39.012014,-5.1733551
39.0305998,0.850791931
39.0491856,14.8760757
39.0677714,10.9024963
39.0863572,1.93006134
39.104943,6.95876312
39.1235288,0.988605499
39.1421146,-6.98041534
39.1607004,-0.0294342041
39.1792862,-0.0773124695
39.197872,-0.124053955
39.2164578,-0.169654846
39.2350436,7.78588486
39.2536294,0.74256134
39.2722152,1.70038223
39.290801,1.6593399
39.3093868,-0.380565643
39.3279726,15.5806694
39.3465584,0.543045044
39.3651442,4.50656128
39.38373,0.471218109
39.4023158,0.437011719
39.4209016,-1.59605789
39.4394874,-4.62798309
39.4580732,0.341228485
39.476659,-3.68841934
39.4952448,0.283073425
39.5138306,-2.74429703
39.5324164,4.22947311
39.5510022,11.2043839
39.569588,18.1804314
39.5881738,7.15761948
39.6067596,5.13594818
39.6253454,3.11541748
39.6439312,21.0960236
39.662517,3.07777023
39.6811028,2.06065369
39.6996886,9.04468155
39.7182744,0.0298461914
39.7368602,-5.98384857
39.755446,9.00359344
39.7740318,-2.00782394
39.7926176,-6.01810074
39.8112034,-0.0272369385
39.8297892,9.96476364
39.848375,28.9579048
39.8669608,2.95218277
39.8855466,29.9476051
39.9041324,11.9441643
39.9227182,21.941864
39.941304,22.9407005
39.9598898,17.9406776
39.9784756,17.9417953
39.9970614,27.9440536
40.0156472,20.9474487
40.034233,29.9519844
40.0528188,17.9576607
40.0714046,30.9644737
40.0899904,22.9724274
40.1085762,45.9815216
40.127162,76.9917526
40.1457478,55.0031281
40.1643336,63.0156364
40.1829194,90.0292892
40.2015052,116.044083
40.220091,158.060013
40.2386768,173.077087
40.2572626,222.095291
40.2758484,282.114624
40.2944342,320.135132
40.31302,302.156738
40.3316058,279.179504
40.3501916,266.20343
40.3687774,274.228455
40.3873632,229.254654
40.405949,229.281982
40.4245348,210.31044
40.4431206,156.340057
40.4617064,129.370789
40.4802922,109.402679
40.498878,82.4356995
40.5174638,63.4698601
40.5360496,57.5051613
40.5546354,61.5415993
40.5732212,52.5791779
40.591807,54.617897
40.6103928,37.6577568
40.6289786,20.6987572
40.6475644,25.7408943
40.6661502,29.7841721
40.684736,42.8285866
40.7033218,33.8741417
40.7219076,33.9208374
40.7404934,31.9686737
40.7590792,24.0176468
40.777665,29.0677605
40.7962508,10.1190147
40.8148366,45.1714096
40.8334224,30.2249413
40.8520082,34.2796135
40.870594,18.3354225
40.8891798,38.3923721
40.9077656,9.45046234
40.9263514,21.5096931
40.9449372,17.5700607
40.963523,5.63156891
40.9821088,23.6942177
41.0006946,15.758007
41.0192804,15.8229332
41.0378662,6.88899994
41.056452,21.9562035
41.0750378,18.0245514
41.0936236,9.0940361
41.1122094,7.16465759
41.1307952,32.2364235
41.149381,19.3093262
41.1679668,19.3833656
41.1865526,16.4585495
41.2051384,14.5348701
41.2237242,7.61233139
41.24231,13.6909332
41.2608958,1.77067184
41.2794816,12.8515511
41.2980674,13.9335709
41.3166532,4.01672745
41.335239,19.1010246
41.3538248,17.1864624
41.3724106,25.273037
41.3909964,9.36075592
41.4095822,3.44961166
41.428168,13.5396042
41.4467538,11.6307411
41.4653396,12.7230148
41.4839254,4.81642532
41.5025112,14.9109802
41.521097,16.0066719
41.5396828,-0.896495819
41.5582686,9.20147324
41.5768544,18.3005829
41.5954402,7.40083313
41.614026,2.50222397
41.6326118,6.60475159
41.6511976,10.7084198
41.6697834,-0.186771393
41.6883692,9.91917419
41.706955,3.02626419
41.7255408,4.13448715
41.7441266,-1.75614548
41.7627124,-7.64564133
41.7812982,13.4660034
41.799884,4.57878876
41.8184698,8.69271088
41.8370556,13.8077736
41.8556414,5.9239769
41.8742272,11.041317
41.892813,0.159801483
41.9113988,-8.72058105
41.9299846,2.40018082
41.9485704,3.52207947
41.9671562,6.64511871
41.985742,9.76929855
42.0043278,3.89461517
42.0229136,-10.9789276
42.0414994,-2.97995758
42.0600852,16.020153
42.078671,-3.97859955
42.0972568,12.0237885
42.1158426,13.027317
42.1344284,8.03198624
42.1530142,18.0377922
42.1716,5.04473877
42.1901858,5.05282593
42.2087716,0.0620498657
42.2273574,-3.9275856
42.2459432,-5.91608047
42.264529,3.03797913
42.2831148,9.99318314
42.3017006,4.94952011
42.3202864,-5.0929985
42.3388722,4.86561966
42.357458,11.8253784
42.3760438,6.78627777
42.3946296,7.7483139
42.4132154,-15.2885094
42.4318012,-0.324192047
42.450387,13.6412621
42.4689728,10.6078606
42.4875586,2.57559204
42.5061444,9.54446793
42.5247302,7.51448059
42.543316,19.4856339
42.5619018,-2.5420723
42.5804876,8.43135834
42.5990734,4.40592957
42.6176592,1.38164139
42.636245,4.3584938
42.6548308,-3.663517
42.6734166,12.3156128
42.6920024,2.29587936
42.7105882,0.277290344
42.729174,6.2598381
42.7477598,6.24352264
42.7663456,1.22835159
42.7849314,0.214317322
42.8035172,-0.79858017
42.822103,14.1896667
42.8406888,1.17905045
42.8592746,12.1695747
42.8778604,14.1612396
42.8964462,3.15404129
42.915032,5.14798355
42.9336178,3.14306641
42.9522036,7.13928604
42.9707894,-2.86335373
42.9893752,21.1351471
43.007961,9.13478851
43.0265468,-0.864433289
43.0451326,3.1374855
43.0637184,15.1405411
43.0823042,14.1447411
43.10089,4.15007782
43.1194758,3.15655136
43.1380616,17.1641693
43.1566474,4.17292404
43.1752332,4.18281937
43.193819,-6.80614853
43.2124048,1.20602798
43.2309906,-5.78066254
43.2495764,5.23379135
43.2681622,12.249382
43.286748,9.26611328
43.3053338,15.2839851
43.3239196,7.30299759
43.3425054,20.3231468
43.3610912,12.3444366
43.379677,10.3668633
43.3982628,25.3904305
43.4168486,16.4151382
43.4354344,7.44098663
43.4540202,-3.5320282
43.472606,10.4960976
43.4911918,11.5253639
43.5097776,0.555770874
43.5283634,4.58731461
43.5469492,5.61999893
43.565535,-1.34617996
43.5841208,4.68878555
43.6027066,-3.27511215
43.6212924,-2.23787308
43.6398782,10.8005104
43.658464,3.84003067
43.6770498,9.88068771
43.6956356,11.9224892
43.7142214,8.9654274
43.7328072,9.00950623
43.751393,-5.94527435
43.7699788,-3.89891815
43.7885646,3.14857864
43.8071504,0.197216034
43.8257362,-0.753009796
43.844322,9.29790497
43.8629078,-7.65003967
43.8814936,3.40315247
43.9000794,-7.54251099
43.9186652,7.51296234
43.937251,6.56957245
43.9558368,-7.37267685
43.9744226,11.6862144
43.9930084,14.7462463
44.0115942,4.80741882
44.03018,0.869728088
44.0487658,1.93317795
44.0673516,12.9977646
44.0859374,13.0634918
44.1045232,-0.86964035
44.123109,-3.80163193
44.1416948,3.26751328
44.1602806,5.33779907
44.1788664,-2.59077454
44.1974522,2.48178864
44.216038,1.5554924
44.2346238,8.63033676
44.2532096,5.70632172
44.2717954,13.7834435
44.2903812,-2.13829422
44.308967,-2.0588913
44.3275528,-5.97835159
44.3461386,2.94549179
44.3647244,6.87047195
44.3833102,3.79659271
44.401896,8.72385406
44.4204818,16.652256
44.4390676,7.58179474
44.4576534,16.5124741
44.4762392,0.444293976
44.494825,13.3772507
44.5134108,8.31134796
44.5319966,5.24658585
44.5505824,-1.81703949
44.5691682,-0.879520416
44.587754,-4.94086838
44.6063398,14.9989281
44.6249256,-3.0601387
44.6435114,6.88193512
44.6620972,7.82514954
44.680683,16.7695007
44.6992688,1.71499252
44.7178546,0.661624908
44.7364404,-0.390602112
44.7550262,10.5583076
44.773612,7.508358
44.7921978,11.4595451
44.8107836,17.4118767
44.8293694,11.365345
44.8479552,5.3199501
44.866541,22.2756996
44.8851268,12.2325859
44.9037126,3.19061279
44.9222984,5.14977646
44.9408842,11.1100807
44.95947,3.07152557
44.9780558,10.034111
44.9966416,2.99783325
45.0152274,10.9626961
45.0338132,-1.07130051
45.052399,-1.10416031
45.0709848,-9.1358757
45.0895706,4.83354187
45.1081564,11.8041039
45.1267422,5.77580261
45.145328,4.74864197
45.1639138,6.72262192
45.1824996,13.6977386
45.2010854,9.67399597
45.2196712,3.65139389
45.238257,1.62992859
45.2568428,19.6096039
45.2754286,19.5904198
45.2940144,0.572376251
45.3126002,2.55546951
45.331186,10.5397034
45.3497718,4.52507782
45.3683576,13.5115891
45.3869434,13.4992409
45.4055292,0.488033295
45.424115,6.47796249
45.4427008,-2.5309639
45.4612866,11.4612427
45.4798724,3.45459366
45.4984582,19.4490814
45.517044,21.4447098
45.5356298,6.44147873
45.5542156,8.43938446
45.5728014,2.43843079
45.5913872,23.4386177
45.609973,7.43994522
45.6285588,26.4424095
45.6471446,16.4460144
45.6657304,16.4507561
45.6843162,15.4566422
45.702902,21.463665
45.7214878,16.4718246
45.7400736,8.48112869
45.7586594,9.49156952
45.7772452,19.5031471
45.795831,22.5158691
45.8144168,30.5297279
45.8330026,20.5447273
45.8515884,36.5608673
45.8701742,43.5781441
45.88876,55.5965614
45.9073458,51.6161194
45.9259316,73.6368103
45.9445174,98.6586456
45.9631032,152.681625
45.981689,173.70575
46.0002748,192.730988
46.0188606,187.757385
46.0374464,159.784912
46.0560322,145.813599
46.074618,159.843414
46.0932038,148.874359
46.1117896,155.906448
46.1303754,138.939682
46.1489612,106.974045
46.167547,105.009552
46.1861328,98.0462036
46.2047186,75.0839996
46.2233044,72.1229248
46.2418902,42.1629906
46.260476,45.2041969
46.2790618,29.2465401
46.2976476,48.2900276
46.3162334,21.3346519
46.3348192,19.3804169
46.353405,19.4273186
46.3719908,8.47536469
46.3905766,11.5245476
46.4091624,6.57486725
46.4277482,2.62633133
46.446334,16.6789322
46.4649198,7.73266983
46.4835056,5.78755188
46.5020914,6.84357071
46.5206772,8.90073013
46.539263,7.95902634
46.5578488,4.01846695
46.5764346,0.079044342
46.5950204,2.14075851
46.6136062,8.2036171
46.632192,2.26761246
46.6507778,10.3327484
46.6693636,2.39902115
46.6879494,8.46643448
46.7065352,-2.4650116
46.725121,-4.39531708
46.7437068,5.67551422
46.7622926,21.7474861
46.7808784,7.8205986
46.7994642,1.89484787
46.81805,22.9702377
46.8366358,7.04676819
46.8552216,17.1244392
46.8738074,4.20324707
46.8923932,11.2831955
46.910979,13.3642807
46.9295648,6.44651031
46.9481506,8.52987671
46.9667364,6.61437988
46.9853222,2.70002747
47.003908,8.78681183
47.0224938,-1.12526321
47.0410796,-0.0362014771
47.0596654,-2.94599533
47.0782512,-4.85465622
47.096837,6.2378273
47.1154228,6.3314476
47.1340086,1.4262085
47.1525944,-9.47789001
47.1711802,-0.44594574
47.189766,7.58713913
47.2083518,8.62136078
47.2269376,10.6567268
47.2455234,11.6932297
47.2641092,13.7308693
47.282695,-1.23034668
47.3012808,6.80957413
47.3198666,8.85063171
47.3384524,-0.10716629
47.3570382,2.93617249
47.375624,8.98065186
47.3942098,4.02626801
47.4127956,-2.92697144
47.4313814,2.1209259
47.4499672,-1.83003998
47.468553,11.2201385
47.4871388,-1.72854614
47.5057246,12.3239059
47.5243104,-0.622497559
47.5428962,-5.56776428
47.561482,-1.52062225
47.5800678,18.5276604
47.5986536,2.57707977
47.6172394,12.6276398
47.6358252,5.67934036
47.654411,10.7321777
47.6729968,-0.213844299
47.6915826,0.841274261
47.7101684,14.8975296
47.7287542,4.95492935
47.74734,8.01346588
47.7659258,7.07313919
47.7845116,-2.86604691
47.8030974,9.19591141
47.8216832,0.259002686
47.840269,10.3232384
47.8588548,13.3886108
47.8774406,3.4551239
47.8960264,-6.47722626
47.9146122,-2.59453201
47.933198,2.28930283
47.9517838,9.17427826
47.9703696,15.0603905
47.9889554,15.9476471
48.0075412,7.83603668
48.026127,4.72557068
48.0447128,11.6162415
48.0632986,19.5080528
48.0818844,17.4010048
48.1004702,22.2950935
48.119056,-5.80967712
48.1376418,7.08669281
48.1562276,8.98419952
48.1748134,0.882846832
48.1933992,5.78263474
48.211985,-7.31643677
48.2305708,2.58562851
48.2491566,5.48883438
48.2677424,-0.606822968
48.2863282,17.2986641
48.304914,13.2052879
48.3234998,-2.88694763
48.3420856,-8.97804642
48.3606714,3.9289093
48.3792572,3.83700562
48.397843,2.74623871
48.4164288,11.6566162
48.4350146,4.56813049
48.4536004,9.48078156
48.4721862,9.39457321
48.490772,0.309505463
48.5093578,9.22557831
48.5279436,9.14279175
48.5465294,9.06114197
48.5651152,2.98063278
48.583701,9.90126038
48.6022868,16.8230286
48.6208726,0.745937347
48.6394584,5.66998672
48.6580442,-3.40482712
48.67663,-6.47850037
48.6952158,4.44091797
48.7138016,0.361476898
48.7323874,9.28317642
48.7509732,-1.79398346
48.769559,5.12999344
48.7881448,19.0551109
48.8067306,2.9813652
48.8253164,4.90876389
48.8439022,2.83729553
48.862488,7.76697159
48.8810738,11.6977882
48.8996596,11.6297417
48.9182454,9.56283188
48.9368312,14.4970665
48.955417,23.4324379
48.9740028,15.3689499
48.9925886,24.3066025
49.0111744,26.2453918
49.0297602,21.1853218
49.048346,32.1263885
49.0669318,37.0685997
49.0855176,33.0119476
49.1041034,45.9564362
49.1226892,37.9020615
49.141275,72.8488312
49.1598608,69.7967377
49.1784466,67.7457809
49.1970324,56.6959648
49.2156182,84.6472931
49.234204,117.599754
49.2527898,111.55336
49.2713756,141.508102
49.2899614,169.463989
49.3085472,203.421005
49.327133,275.37915
49.3457188,333.33847
49.3643046,433.29892
49.3828904,482.260498
49.4014762,519.223206
49.420062,454.187073
49.4386478,448.152069
49.4572336,396.118195
49.4758194,370.08548
49.4944052,333.053894
49.512991,355.023438
49.5315768,333.994141
49.5501626,268.965973
49.5687484,227.93895
49.5873342,177.913071
49.60592,158.888321
49.6245058,136.864716
49.6430916,100.842239
49.6616774,100.820915
49.6802632,57.8007278
49.698849,68.7816772
49.7174348,50.7637672
49.7360206,37.7469978
49.7546064,46.7313652
49.7731922,29.7168732
49.791778,39.7035217
49.8103638,20.6913071
49.8289496,26.680233
49.8475354,23.6702995
49.8661212,34.6615067
49.884707,17.6538506
49.9032928,19.6473351
49.9218786,20.6419601
49.9404644,23.637722
49.9590502,16.6346245
49.977636,16.6326675
49.9962218,28.6318474
50.0148076,39.6321716
50.0333934,23.6336327
50.0519792,23.6362305
50.070565,27.6399689
50.0891508,47.6448479
50.1077366,39.6508675
50.1263224,45.6580276
50.1449082,38.6663246
50.163494,43.6757584
50.1820798,55.6863365
50.2006656,54.6980515
50.2192514,59.710907
50.2378372,59.7249031
50.256423,26.740036
50.2750088,53.7563095
50.2935946,57.7737236
50.3121804,51.7922745
50.3307662,31.8119659
50.349352,29.832798
50.3679378,27.8547707
50.3865236,18.8778801
50.4051094,25.9021301
50.4236952,25.9275169
50.442281,35.9540482
50.4608668,39.9817162
50.4794526,51.0105247
50.4980384,28.0404701
50.5166242,30.0715561
50.53521,33.1037827
50.5537958,41.1371498
50.5723816,32.1716537
50.5909674,37.2072983
50.6095532,21.2440796
50.628139,24.2820053
50.6467248,23.3210678
50.6653106,40.3612709
50.6838964,40.4026108
50.7024822,30.4450912
50.721068,35.4887123
50.7396538,25.533474
50.7582396,15.5793724
50.7768254,21.6264114
50.7954112,13.6745872
50.813997,42.7239075
50.8325828,23.7743645
50.8511686,16.8259621
50.8697544,8.87869644
50.8883402,19.9325714
50.906926,8.98758698
50.9255118,14.0437431
50.9440976,17.1010361
50.9626834,-1.8405304
50.9812692,9.21904373
50.999855,6.27975464
51.0184408,26.3416061
51.0370266,22.4045982
51.0556124,23.4687309
51.0741982,-2.4659996
51.092784,2.60041046
51.1113698,-1.33204269
51.1299556,12.7366486
51.1485414,25.8064766
51.1671272,14.8774414
51.185713,21.9495506
51.2042988,9.02279663
51.2228846,13.0971832
51.2414704,12.1727066
51.2600562,11.2493706
51.278642,13.3271751
51.2972278,8.4061203
51.3158136,4.48620224
51.3343994,11.5674248
51.3529852,11.6497879
51.371571,1.73328781
51.3901568,11.8179283
51.4087426,13.9037094
51.4273284,14.9906311
51.4459142,8.07868958
51.4645,9.16788864
51.4830858,6.2582283
51.5016716,21.3497047
51.5202574,10.4423218
51.5388432,-5.46392059
51.557429,7.63097382
51.5760148,18.7270088
51.5946006,10.8241844
51.6131864,-3.07749939
51.6317722,-7.97804642
51.650358,3.97117233
51.6689438,4.92153168
51.6875296,-4.1269722
51.7061154,14.8256645
51.7247012,22.7794418
51.743287,6.73435593
51.7618728,13.6904144
51.7804586,10.6476097
51.7990444,0.605941772
51.8176302,16.5654144
51.836216,11.5260277
51.8548018,2.48778152
51.8733876,12.450676
51.8919734,3.41470718
51.9105592,4.37987518
51.929145,3.34618759
51.9477308,2.31363678
51.9663166,0.282226563
51.9849024,8.25195694
52.0034882,9.2228241
52.022074,9.19483185
52.0406598,10.1679802
52.0592456,11.1422653
52.0778314,15.117691
52.0964172,11.0942574
52.115003,8.07196426
52.1335888,18.050808
52.1521746,13.0307922
52.1707604,10.0119133
52.1893462,26.9941788
52.207932,25.977581
52.2265178,31.9621239
52.2451036,43.9478035
52.2636894,41.9346237
52.2822752,60.9225845
52.300861,63.9116859
52.3194468,62.9019241
52.3380326,66.8933029
52.3566184,56.8858185
52.3752042,56.8794785
52.39379,44.8742752
52.4123758,19.8702126
52.4309616,23.8672867
52.4495474,28.8655014
52.4681332,48.8648567
52.486719,46.8653526
52.5053048,24.8669853
52.5238906,2.86975861
52.5424764,20.8736725
52.5610622,14.8787231
52.579648,4.8849144
52.5982338,9.89224625
52.6168196,11.9007149
52.6354054,14.9103279
52.6539912,-4.07892609
52.672577,3.93296432
52.6911628,7.94599152
52.7097486,-1.0398407
52.7283344,7.97546768
52.7469202,-2.00808716
52.765506,12.0094986
52.7840918,18.0282249
52.8026776,9.04809189
52.8212634,9.06909561
52.8398492,10.0912399
52.858435,11.114521
52.8770208,-2.86105347
52.8956066,0.16450882
52.9141924,-3.80879211
52.9327782,6.21905136
52.951364,-0.751968384
52.9699498,10.2781525
52.9885356,3.3094101
53.0071214,-7.65818787
53.0257072,11.3753471
53.044293,-1.58997345
53.0628788,15.4458427
53.0814646,4.48279953
53.1000504,2.52089691
53.1186362,22.5601349
53.137222,2.60050964
53.1558078,3.64202499
53.1743936,-2.31532288
53.1929794,-1.27153015
53.2115652,-0.226596832
53.230151,5.81947708
53.2487368,10.8666878
53.2673226,6.91503906
53.2859084,-1.03546906
53.3044942,13.0151634
53.32308,7.06693268
53.3416658,3.11984253
53.3602516,-1.82611084
53.3788374,-0.770923615
53.3974232,2.28540421
53.416009,10.3428726
53.4345948,3.40147781
53.4531806,6.4612236
53.4717664,-9.47789001
53.4903522,-5.54064941
53.508938,1.39773178
53.5275238,5.33724976
53.5461096,9.27790833
53.5646954,-0.780292511
53.5832812,-8.83735275
53.601867,4.10672379
53.6204528,3.05194092
53.6390386,6.99829865
53.6576244,19.9457932
53.6762102,0.894428253
53.694796,18.8442039
53.7133818,7.79511642
53.7319676,7.74716949
53.7505534,5.70036316
53.7691392,4.65469742
53.787725,8.61016846
53.8063108,5.56678009
53.8248966,8.52453232
53.8434824,2.48342133
53.8620682,5.44345093
53.880654,4.40462112
53.8992398,9.36693192
53.9178256,11.3303795
53.9364114,17.2949677
53.9549972,9.2606926
53.973583,-3.77243805
53.9921688,20.1955681
54.0107546,26.164711
54.0293404,32.1349983
54.0479262,14.1064224
54.066512,10.0789871
54.0850978,21.0526886
54.1036836,22.0275307
54.1222694,22.0035133
54.1408552,12.9806366
54.159441,17.9588966
54.1780268,5.93829727
54.1966126,7.9188385
54.2151984,-0.09948349
54.2337842,12.8833351
54.25237,-1.13270569
54.2709558,16.8523941
54.2895416,14.8386307
54.3081274,-2.17399216
54.3267132,7.81452179
54.345299,3.80418015
54.3638848,0.794975281
54.3824706,8.78691101
54.4010564,2.77998352
54.4196422,1.77419662
54.438228,9.76955032
54.4568138,2.7660408
54.4753996,-0.23632431
54.4939854,8.76244736
54.5125712,-1.2376442
54.531157,0.763408661
54.5497428,-2.2344017
54.5683286,8.76892471
54.5869144,2.77339554
54.6055002,3.77900314
54.624086,-1.21424866
54.6426718,1.79363632
54.6612576,-9.19733429
54.6798434,6.81283188
54.6984292,1.82413483
54.717015,3.83658218
54.7356008,-11.1498337
54.7541866,-0.135108948
54.7727724,-2.11924744
54.7913582,-0.102245331
54.809944,2.91589737
54.8285298,-1.06481934
54.8471156,2.95560074
54.8657014,7.97716141
54.8842872,6.99986267
54.902873,4.02370071
54.9214588,10.0486794
54.9400446,2.07479858
54.9586304,10.1020546
54.9772162,3.13045502
54.995802,2.1599884
55.0143878,5.1906662
55.0329736,-0.777519226
55.0515594,-5.74456406
55.0701452,1.21314621
55.088731,-3.82800293
55.1073168,6.13198471
55.1259026,0.0931129456
55.1444884,13.0553818
55.1630742,3.01878738
55.18166,17.9833374
55.2002458,9.94902039
55.2188316,19.9158478
55.2374174,20.883812
55.2560032,-0.147083282
55.274589,14.8231621
55.2931748,7.79454422
55.3117606,12.767067
55.3303464,11.7407303
55.3489322,5.71553421
55.367518,9.69147491
55.3861038,17.6685562
55.4046896,21.6467743
55.4232754,13.6261368
55.4418612,24.606636
55.460447,11.5882721
55.4790328,14.5710526
55.4976186,22.5549698
55.5162044,19.5400276
55.5347902,16.5262222
55.553376,33.5135612
55.5719618,0.502033234
55.5905476,10.4916496
55.6091334,8.4824028
55.6277192,13.4742966
55.646305,8.46733093
55.6648908,18.4615059
55.6834766,11.4568176
55.7020624,20.45327
55.7206482,11.4508591
55.739234,16.4495888
55.7578198,-3.55054092
55.7764056,15.45047
55.7949914,6.45261765
55.8135772,11.4559059
55.832163,10.4603348
55.8507488,18.4659004
55.8693346,-2.52738953
55.8879204,16.4804535
55.9065062,6.48944092
55.925092,5.49956512
55.9436778,11.5108299
55.9622636,12.5232353
55.9808494,6.5367775
55.9994352,10.5514603
56.018021,2.56728363
56.0366068,11.5842476
56.0551926,17.6023483
56.0737784,2.62158966
56.0923642,5.64196777
56.11095,7.66348648
56.1295358,8.68614578
56.1481216,5.70994568
56.1667074,3.73488235
56.1852932,1.76096344
56.203879,15.7881775
56.2224648,14.8165359
56.2410506,0.846031189
56.2596364,8.87666702
56.2782222,14.9084396
56.296808,6.94135666
56.3153938,2.97541046
56.3339796,3.01060104
56.3525654,6.04693604
56.3711512,-0.915592194
56.389737,17.1230202
56.4083228,7.16276932
56.4269086,0.203659058
56.4454944,-1.75431061
56.4640802,1.28886032
56.482666,13.333168
56.5012518,3.37861633
56.5198376,9.42520523
56.5384234,-1.52706909
56.5570092,-14.478199
56.575595,2.54291916
56.5941808,-0.434822083
56.6127666,-1.41142273
56.6313524,4.6131134
56.6499382,20.6387901
56.668524,12.6656075
56.6871098,7.69356155
56.7056956,6.72265625
56.7242814,10.7528915
56.7428672,3.78426743
56.761453,12.8167801
56.7800388,9.85043335
56.7986246,-2.11477661
56.8172104,5.92115784
56.8357962,-10.0417709
56.854382,1.99643707
56.8729678,2.03578949
56.8915536,12.0762787
56.9101394,10.1179085
56.9287252,16.160675
56.947311,5.20458603
56.9658968,7.24963379
56.9844826,-3.70418167
57.0030684,-5.65685272
57.0216542,1.12095261
57.04024,-0.100105286
57.0588258,5.67998123
57.0774116,6.46120453
57.0959974,23.2435646
57.1145832,15.0270691
57.133169,10.8117104
57.1517548,9.59749222
57.1703406,-3.61558914
57.1889264,7.17247009
57.2075122,14.9616699
57.226098,0.752010345
57.2446838,23.5434875
57.2632696,5.33610535
57.2818554,20.1298637
57.3004412,9.92475891
57.319027,20.7207947
57.3376128,1.51797104
57.3561986,-4.68371582
57.3747844,15.1157417
57.3933702,-1.08366776
57.411956,1.71806717
57.4305418,-10.4790611
57.4491276,19.3249512
57.4677134,-0.869895935
57.4862992,-0.0636024475
57.504885,-3.25617218
57.5234708,15.5523949
57.5420566,9.36210632
57.5606424,19.1729546
57.5792282,12.9849434
57.597814,0.798072815
57.6163998,15.612339
57.6349856,31.4277458
57.6535714,29.2442932
57.6721572,12.0619774
57.690743,30.8808022
57.7093288,18.7007675
57.7279146,35.5218735
57.7465004,28.3441162
57.7650862,26.1674995
57.783672,30.9920197
57.8022578,32.8176842
57.8208436,32.6444855
57.8394294,28.4724274
57.8580152,26.301506
57.876601,53.1317253
57.8951868,64.963089
57.9137726,55.7955856
57.9323584,74.6292267
57.9509442,86.4640045
57.96953,98.2999115
57.9881158,117.136978
58.0067016,122.975174
58.0252874,148.814514
58.0438732,152.654984
58.062459,138.496597
58.0810448,90.3393478
58.0996306,112.183243
58.1182164,90.0282745
58.1368022,116.874451
58.155388,115.721756
58.1739738,118.570206
58.1925596,134.4198
58.2111454,94.2705307
58.2297312,119.122398
58.248317,102.97541
58.2669028,81.8295593
58.2854886,67.684845
58.3040744,59.5412712
58.3226602,37.398838
58.341246,46.2575455
58.3598318,52.1173897
58.3784176,21.9783783
58.3970034,34.8404999
58.4155892,27.7037659
58.434175,12.5681686
58.4527608,34.433712
58.4713466,24.300396
58.4899324,15.1682167
58.5085182,1.03717804
58.527104,4.90727997
58.5456898,19.7785187
58.5642756,0.65089798
58.5828614,15.5244179
58.6014472,25.3990746
58.620033,7.27487564
58.6386188,-0.848186493
58.6572046,-0.970111847
58.6757904,-0.0908927917
58.6943762,-7.21053696
58.712962,18.6709557
58.7315478,17.5535927
58.7501336,4.43736649
58.7687194,-5.67771912
58.7873052,18.2083321
58.805891,14.0955238
58.8244768,24.9838562
58.8430626,28.8733292
58.8616484,36.7639389
58.8802342,34.6556892
58.89882,71.548584
58.9174058,69.4426117
58.9359916,76.3377838
58.9545774,81.2340851
58.9731632,82.1315308
58.991749,83.0301208
59.0103348,62.9298477
59.0289206,94.830719
59.0475064,68.7327194
59.0660922,92.6358643
59.084678,114.540146
59.1032638,151.445572
59.1218496,170.352142
59.1404354,125.259842
59.1590212,105.168686
59.177607,110.078667
59.1961928,70.9897919
59.2147786,65.9020462
59.2333644,77.8154449
59.2519502,46.7299881
59.270536,76.645668
59.2891218,65.5624847
59.3077076,68.4804382
59.3262934,40.3995399
59.3448792,53.3197784
59.363465,16.2411537
59.3820508,36.1636696
59.4006366,31.087326
59.4192224,7.01211929
59.4378082,2.93805313
59.456394,15.8651276
59.4749798,7.79334259
59.4935656,-1.2773056
59.5121514,6.6531868
59.5307372,-1.41518402
59.549323,-9.48241043
59.5679088,2.1745224
59.5864946,-0.16740799
59.6050804,8.49180222
59.6236662,-1.8478508
59.642252,-2.18635941
59.6608378,10.4762688
59.6794236,4.14003372
59.6980094,-3.19505692
59.7165952,7.47098923
59.735181,-7.86182404
59.7537668,7.80649948
59.7723526,0.475967407
59.7909384,3.14657211
59.8095242,-4.1816864
59.82811,4.49119949
59.8466958,18.1652222
59.8652816,-1.15961838
59.8838674,-7.48331451
59.9024532,-5.31960297
59.921039,-6.15475464
59.9396248,1.01123047
59.9582106,3.17835999
59.9767964,-1.65337372
59.9953822,-11.4839706
60.013968,-8.4852829
60.0325538,-9.1651535
